  5.000 196
  5.020 187
  5.040 225
  5.060 174
  5.080 204
  5.100 234
  5.120 207
  5.140 216
  5.160 207
  5.180 198
  5.200 237
  5.220 228
  5.240 187
  5.260 216
  5.280 231
  5.300 201
  5.320 187
  5.340 210
  5.360 184
  5.380 179
  5.400 176
  5.420 158
  5.440 179
  5.460 182
  5.480 182
  5.500 190
  5.520 171
  5.540 163
  5.560 184
  5.580 179
  5.600 193
  5.620 161
  5.640 176
  5.660 174
  5.680 201
  5.700 156
  5.720 151
  5.740 182
  5.760 174
  5.780 166
  5.800 169
  5.820 141
  5.840 179
  5.860 151
  5.880 144
  5.900 171
  5.920 146
  5.940 156
  5.960 158
  5.980 174
  6.000 169
  6.020 166
  6.040 148
  6.060 161
  6.080 166
  6.100 176
  6.120 169
  6.140 169
  6.160 169
  6.180 146
  6.200 166
  6.220 156
  6.240 184
  6.260 176
  6.280 182
  6.300 171
  6.320 144
  6.340 163
  6.360 146
  6.380 161
  6.400 158
  6.420 158
  6.440 161
  6.460 136
  6.480 161
  6.500 161
  6.520 148
  6.540 179
  6.560 176
  6.580 158
  6.600 163
  6.620 158
  6.640 158
  6.660 153
  6.680 153
  6.700 144
  6.720 146
  6.740 136
  6.760 139
  6.780 148
  6.800 163
  6.820 153
  6.840 151
  6.860 153
  6.880 156
  6.900 141
  6.920 148
  6.940 144
  6.960 148
  6.980 153
  7.000 141
  7.020 141
  7.040 139
  7.060 139
  7.080 146
  7.100 141
  7.120 146
  7.140 163
  7.160 141
  7.180 144
  7.200 156
  7.220 141
  7.240 141
  7.260 144
  7.280 141
  7.300 139
  7.320 166
  7.340 151
  7.360 163
  7.380 144
  7.400 151
  7.420 136
  7.440 144
  7.460 158
  7.480 136
  7.500 158
  7.520 144
  7.540 146
  7.560 151
  7.580 139
  7.600 139
  7.620 141
  7.640 148
  7.660 141
  7.680 166
  7.700 158
  7.720 153
  7.740 163
  7.760 125
  7.780 148
  7.800 132
  7.820 148
  7.840 127
  7.860 141
  7.880 139
  7.900 144
  7.920 139
  7.940 144
  7.960 129
  7.980 144
  8.000 125
  8.020 127
  8.040 129
  8.060 146
  8.080 158
  8.100 153
  8.120 136
  8.140 151
  8.160 151
  8.180 134
  8.200 129
  8.220 136
  8.240 146
  8.260 132
  8.280 161
  8.300 169
  8.320 139
  8.340 144
  8.360 156
  8.380 144
  8.400 144
  8.420 134
  8.440 132
  8.460 112
  8.480 125
  8.500 136
  8.520 125
  8.540 134
  8.560 144
  8.580 114
  8.600 144
  8.620 153
  8.640 139
  8.660 163
  8.680 132
  8.700 121
  8.720 127
  8.740 144
  8.760 146
  8.780 136
  8.800 121
  8.820 139
  8.840 156
  8.860 134
  8.880 129
  8.900 127
  8.920 129
  8.940 151
  8.960 123
  8.980 125
  9.000 134
  9.020 132
  9.040 144
  9.060 121
  9.080 144
  9.100 129
  9.120 146
  9.140 153
  9.160 148
  9.180 132
  9.200 141
  9.220 151
  9.240 136
  9.260 148
  9.280 139
  9.300 153
  9.320 144
  9.340 153
  9.360 139
  9.380 104
  9.400 151
  9.420 144
  9.440 166
  9.460 158
  9.480 123
  9.500 148
  9.520 148
  9.540 144
  9.560 139
  9.580 139
  9.600 156
  9.620 148
  9.640 158
  9.660 136
  9.680 158
  9.700 148
  9.720 153
  9.740 179
  9.760 182
  9.780 166
  9.800 187
  9.820 201
  9.840 190
  9.860 207
  9.880 243
  9.900 210
  9.920 275
  9.940 295
  9.960 302
  9.980 324
 10.000 384
 10.020 457
 10.040 524
 10.060 595
 10.080 691
 10.100 691
 10.120 817
 10.140 888
 10.160 1043
 10.180 1274
 10.200 1482
 10.220 1989
 10.240 2162
 10.260 2662
 10.280 3124
 10.300 3672
 10.320 4199
 10.340 4774
 10.360 5431
 10.380 6480
 10.400 8064
 10.420 10180
 10.440 11924
 10.460 11968
 10.480 10691
 10.500 7761
 10.520 4802
 10.540 2180
 10.560 789
 10.580 428
 10.600 334
 10.620 292
 10.640 256
 10.660 285
 10.680 210
 10.700 207
 10.720 210
 10.740 179
 10.760 176
 10.780 153
 10.800 158
 10.820 153
 10.840 163
 10.860 148
 10.880 139
 10.900 174
 10.920 163
 10.940 125
 10.960 144
 10.980 163
 11.000 161
 11.020 169
 11.040 176
 11.060 207
 11.080 190
 11.100 179
 11.120 190
 11.140 174
 11.160 213
 11.180 225
 11.200 249
 11.220 292
 11.240 331
 11.260 372
 11.280 388
 11.300 432
 11.320 457
 11.340 552
 11.360 610
 11.380 676
 11.400 795
 11.420 846
 11.440 936
 11.460 918
 11.480 739
 11.500 590
 11.520 331
 11.540 201
 11.560 158
 11.580 136
 11.600 156
 11.620 158
 11.640 153
 11.660 132
 11.680 146
 11.700 153
 11.720 146
 11.740 125
 11.760 110
 11.780 136
 11.800 129
 11.820 151
 11.840 110
 11.860 136
 11.880 136
 11.900 123
 11.920 158
 11.940 123
 11.960 127
 11.980 134
 12.000 146
 12.020 129
 12.040 132
 12.060 141
 12.080 127
 12.100 108
 12.120 139
 12.140 132
 12.160 132
 12.180 129
 12.200 163
 12.220 121
 12.240 127
 12.260 123
 12.280 112
 12.300 144
 12.320 118
 12.340 106
 12.360 127
 12.380 132
 12.400 132
 12.420 118
 12.440 153
 12.460 127
 12.480 136
 12.500 110
 12.520 132
 12.540 108
 12.560 151
 12.580 118
 12.600 125
 12.620 110
 12.640 121
 12.660 123
 12.680 136
 12.700 118
 12.720 139
 12.740 153
 12.760 136
 12.780 136
 12.800 136
 12.820 139
 12.840 139
 12.860 148
 12.880 166
 12.900 114
 12.920 158
 12.940 146
 12.960 148
 12.980 153
 13.000 151
 13.020 134
 13.040 134
 13.060 132
 13.080 144
 13.100 121
 13.120 156
 13.140 153
 13.160 156
 13.180 144
 13.200 136
 13.220 158
 13.240 148
 13.260 121
 13.280 129
 13.300 139
 13.320 144
 13.340 129
 13.360 127
 13.380 123
 13.400 136
 13.420 153
 13.440 148
 13.460 123
 13.480 158
 13.500 129
 13.520 129
 13.540 163
 13.560 118
 13.580 139
 13.600 144
 13.620 148
 13.640 148
 13.660 163
 13.680 151
 13.700 121
 13.720 146
 13.740 156
 13.760 148
 13.780 158
 13.800 153
 13.820 151
 13.840 148
 13.860 158
 13.880 153
 13.900 158
 13.920 187
 13.940 207
 13.960 174
 13.980 213
 14.000 222
 14.020 275
 14.040 262
 14.060 282
 14.080 345
 14.100 380
 14.120 412
 14.140 428
 14.160 488
 14.180 561
 14.200 655
 14.220 835
 14.240 1030
 14.260 1310
 14.280 1552
 14.300 1814
 14.320 2088
 14.340 2401
 14.360 2693
 14.380 3014
 14.400 3600
 14.420 4096
 14.440 4858
 14.460 5715
 14.480 7259
 14.500 9682
 14.520 12321
 14.540 14448
 14.560 15276
 14.580 15351
 14.600 16770
 14.620 17529
 14.640 18117
 14.660 16052
 14.680 11257
 14.700 5535
 14.720 2683
 14.740 924
 14.760 576
 14.780 428
 14.800 424
 14.820 392
 14.840 342
 14.860 327
 14.880 302
 14.900 259
 14.920 256
 14.940 246
 14.960 198
 14.980 193
 15.000 198
 15.020 196
 15.040 174
 15.060 196
 15.080 174
 15.100 187
 15.120 163
 15.140 174
 15.160 163
 15.180 156
 15.200 166
 15.220 182
 15.240 144
 15.260 146
 15.280 163
 15.300 156
 15.320 144
 15.340 153
 15.360 163
 15.380 171
 15.400 151
 15.420 158
 15.440 158
 15.460 153
 15.480 148
 15.500 166
 15.520 148
 15.540 132
 15.560 141
 15.580 153
 15.600 153
 15.620 148
 15.640 146
 15.660 151
 15.680 123
 15.700 161
 15.720 144
 15.740 151
 15.760 148
 15.780 139
 15.800 134
 15.820 153
 15.840 125
 15.860 163
 15.880 136
 15.900 132
 15.920 148
 15.940 161
 15.960 136
 15.980 136
 16.000 141
 16.020 148
 16.040 139
 16.060 158
 16.080 158
 16.100 151
 16.120 148
 16.140 148
 16.160 153
 16.180 161
 16.200 169
 16.220 158
 16.240 184
 16.260 151
 16.280 174
 16.300 198
 16.320 182
 16.340 161
 16.360 187
 16.380 219
 16.400 222
 16.420 213
 16.440 246
 16.460 249
 16.480 302
 16.500 368
 16.520 380
 16.540 432
 16.560 510
 16.580 566
 16.600 556
 16.620 635
 16.640 739
 16.660 817
 16.680 936
 16.700 1122
 16.720 1225
 16.740 1406
 16.760 1421
 16.780 1436
 16.800 1296
 16.820 1043
 16.840 812
 16.860 556
 16.880 388
 16.900 313
 16.920 262
 16.940 231
 16.960 201
 16.980 213
 17.000 201
 17.020 196
 17.040 196
 17.060 174
 17.080 171
 17.100 146
 17.120 174
 17.140 190
 17.160 187
 17.180 174
 17.200 182
 17.220 174
 17.240 161
 17.260 158
 17.280 169
 17.300 153
 17.320 187
 17.340 169
 17.360 182
 17.380 187
 17.400 190
 17.420 184
 17.440 176
 17.460 158
 17.480 176
 17.500 174
 17.520 182
 17.540 204
 17.560 193
 17.580 193
 17.600 201
 17.620 182
 17.640 184
 17.660 182
 17.680 179
 17.700 166
 17.720 204
 17.740 216
 17.760 174
 17.780 193
 17.800 222
 17.820 187
 17.840 204
 17.860 237
 17.880 231
 17.900 219
 17.920 231
 17.940 225
 17.960 243
 17.980 262
 18.000 240
 18.020 246
 18.040 252
 18.060 268
 18.080 292
 18.100 357
 18.120 392
 18.140 432
 18.160 488
 18.180 515
 18.200 605
 18.220 630
 18.240 729
 18.260 817
 18.280 954
 18.300 1108
 18.320 1317
 18.340 1505
 18.360 1780
 18.380 2052
 18.400 2371
 18.420 2883
 18.440 3576
 18.460 4408
 18.480 4942
 18.500 5975
 18.520 6839
 18.540 8136
 18.560 9467
 18.580 11025
 18.600 13064
 18.620 15850
 18.640 19544
 18.660 23225
 18.680 26961
 18.700 29618
 18.720 32652
 18.740 33415
 18.760 32400
 18.780 29002
 18.800 22831
 18.820 16129
 18.840 9820
 18.860 5655
 18.880 3294
 18.900 2061
 18.920 1689
 18.940 1814
 18.960 1755
 18.980 1713
 19.000 1705
 19.020 1664
 19.040 1648
 19.060 1552
 19.080 1369
 19.100 1303
 19.120 1162
 19.140 948
 19.160 729
 19.180 524
 19.200 424
 19.220 342
 19.240 334
 19.260 324
 19.280 313
 19.300 299
 19.320 316
 19.340 302
 19.360 295
 19.380 306
 19.400 282
 19.420 292
 19.440 289
 19.460 289
 19.480 292
 19.500 306
 19.520 334
 19.540 353
 19.560 357
 19.580 316
 19.600 364
 19.620 368
 19.640 400
 19.660 420
 19.680 372
 19.700 342
 19.720 338
 19.740 292
 19.760 316
 19.780 243
 19.800 265
 19.820 246
 19.840 265
 19.860 265
 19.880 327
 19.900 302
 19.920 299
 19.940 361
 19.960 345
 19.980 376
 20.000 404
 20.020 412
 20.040 388
 20.060 492
 20.080 506
 20.100 600
 20.120 615
 20.140 772
 20.160 864
 20.180 1122
 20.200 1260
 20.220 1521
 20.240 1616
 20.260 1755
 20.280 1866
 20.300 2134
 20.320 2420
 20.340 2798
 20.360 3260
 20.380 3893
 20.400 5112
 20.420 5959
 20.440 6480
 20.460 6146
 20.480 5241
 20.500 3733
 20.520 2391
 20.540 1528
 20.560 954
 20.580 702
 20.600 686
 20.620 681
 20.640 778
 20.660 778
 20.680 912
 20.700 1030
 20.720 1197
 20.740 1361
 20.760 1436
 20.780 1697
 20.800 1971
 20.820 2284
 20.840 2520
 20.860 2787
 20.880 3375
 20.900 3856
 20.920 4747
 20.940 5821
 20.960 6855
 20.980 8190
 21.000 9139
 21.020 10000
 21.040 10221
 21.060 10020
 21.080 9139
 21.100 8317
 21.120 7191
 21.140 6052
 21.160 4448
 21.180 3047
 21.200 2034
 21.220 1246
 21.240 864
 21.260 590
 21.280 519
 21.300 515
 21.320 515
 21.340 506
 21.360 529
 21.380 538
 21.400 620
 21.420 670
 21.440 676
 21.460 812
 21.480 876
 21.500 948
 21.520 1030
 21.540 1204
 21.560 1339
 21.580 1528
 21.600 1681
 21.620 1814
 21.640 1909
 21.660 2061
 21.680 2143
 21.700 2007
 21.720 1764
 21.740 1428
 21.760 1062
 21.780 756
 21.800 524
 21.820 392
 21.840 313
 21.860 299
 21.880 265
 21.900 282
 21.920 246
 21.940 275
 21.960 240
 21.980 278
 22.000 259
 22.020 246
 22.040 240
 22.060 259
 22.080 292
 22.100 278
 22.120 292
 22.140 256
 22.160 256
 22.180 252
 22.200 292
 22.220 295
 22.240 309
 22.260 299
 22.280 292
 22.300 299
 22.320 334
 22.340 309
 22.360 327
 22.380 345
 22.400 349
 22.420 384
 22.440 349
 22.460 392
 22.480 380
 22.500 353
 22.520 361
 22.540 380
 22.560 334
 22.580 372
 22.600 364
 22.620 372
 22.640 412
 22.660 432
 22.680 466
 22.700 515
 22.720 542
 22.740 580
 22.760 670
 22.780 691
 22.800 761
 22.820 876
 22.840 992
 22.860 1169
 22.880 1332
 22.900 1482
 22.920 1780
 22.940 2061
 22.960 2381
 22.980 2756
 23.000 3192
 23.020 3564
 23.040 4186
 23.060 4719
 23.080 5416
 23.100 5990
 23.120 6773
 23.140 8082
 23.160 10180
 23.180 12904
 23.200 15725
 23.220 18496
 23.240 21462
 23.260 23870
 23.280 26308
 23.300 28156
 23.320 31790
 23.340 36595
 23.360 41943
 23.380 46742
 23.400 48796
 23.420 45113
 23.440 38376
 23.460 27922
 23.480 18009
 23.500 11236
 23.520 6320
 23.540 2905
 23.560 1697
 23.580 1303
 23.600 1197
 23.620 1024
 23.640 979
 23.660 864
 23.680 772
 23.700 650
 23.720 620
 23.740 585
 23.760 519
 23.780 519
 23.800 441
 23.820 420
 23.840 436
 23.860 428
 23.880 372
 23.900 372
 23.920 342
 23.940 372
 23.960 342
 23.980 334
 24.000 334
 24.020 372
 24.040 349
 24.060 338
 24.080 342
 24.100 324
 24.120 331
 24.140 331
 24.160 313
 24.180 338
 24.200 331
 24.220 342
 24.240 349
 24.260 338
 24.280 342
 24.300 372
 24.320 408
 24.340 400
 24.360 428
 24.380 453
 24.400 475
 24.420 488
 24.440 529
 24.460 625
 24.480 712
 24.500 806
 24.520 1036
 24.540 1122
 24.560 1176
 24.580 1317
 24.600 1406
 24.620 1489
 24.640 1632
 24.660 1866
 24.680 1831
 24.700 1814
 24.720 1592
 24.740 1346
 24.760 1004
 24.780 767
 24.800 610
 24.820 479
 24.840 357
 24.860 292
 24.880 289
 24.900 262
 24.920 268
 24.940 259
 24.960 249
 24.980 243
 25.000 246
 25.020 237
 25.040 282
 25.060 237
 25.080 237
 25.100 231
 25.120 213
 25.140 259
 25.160 237
 25.180 246
 25.200 240
 25.220 249
 25.240 259
 25.260 262
 25.280 252
 25.300 272
 25.320 262
 25.340 256
 25.360 299
 25.380 345
 25.400 342
 25.420 349
 25.440 342
 25.460 353
 25.480 412
 25.500 457
 25.520 466
 25.540 515
 25.560 576
 25.580 585
 25.600 600
 25.620 691
 25.640 640
 25.660 806
 25.680 918
 25.700 1069
 25.720 1274
 25.740 1451
 25.760 1568
 25.780 1640
 25.800 1840
 25.820 2106
 25.840 2190
 25.860 2540
 25.880 2851
 25.900 2959
 25.920 2970
 25.940 2704
 25.960 2294
 25.980 1780
 26.000 1376
 26.020 1102
 26.040 778
 26.060 640
 26.080 519
 26.100 416
 26.120 416
 26.140 357
 26.160 327
 26.180 345
 26.200 295
 26.220 299
 26.240 313
 26.260 331
 26.280 342
 26.300 357
 26.320 408
 26.340 404
 26.360 400
 26.380 445
 26.400 506
 26.420 510
 26.440 510
 26.460 547
 26.480 561
 26.500 576
 26.520 595
 26.540 585
 26.560 566
 26.580 538
 26.600 453
 26.620 416
 26.640 353
 26.660 331
 26.680 289
 26.700 231
 26.720 259
 26.740 246
 26.760 216
 26.780 196
 26.800 196
 26.820 225
 26.840 243
 26.860 210
 26.880 222
 26.900 234
 26.920 225
 26.940 216
 26.960 198
 26.980 201
 27.000 225
 27.020 196
 27.040 231
 27.060 219
 27.080 228
 27.100 243
 27.120 234
 27.140 228
 27.160 219
 27.180 204
 27.200 216
 27.220 228
 27.240 210
 27.260 222
 27.280 231
 27.300 234
 27.320 231
 27.340 213
 27.360 240
 27.380 213
 27.400 240
 27.420 225
 27.440 252
 27.460 222
 27.480 210
 27.500 240
 27.520 240
 27.540 268
 27.560 234
 27.580 268
 27.600 275
 27.620 316
 27.640 295
 27.660 353
 27.680 361
 27.700 357
 27.720 416
 27.740 384
 27.760 436
 27.780 479
 27.800 538
 27.820 552
 27.840 605
 27.860 707
 27.880 756
 27.900 806
 27.920 846
 27.940 967
 27.960 1197
 27.980 1317
 28.000 1544
 28.020 1705
 28.040 1892
 28.060 2171
 28.080 2490
 28.100 2683
 28.120 2981
 28.140 3036
 28.160 3410
 28.180 3445
 28.200 3868
 28.220 4489
 28.240 4858
 28.260 5565
 28.280 6130
 28.300 7005
 28.320 7242
 28.340 6724
 28.360 5595
 28.380 4395
 28.400 3113
 28.420 2313
 28.440 1451
 28.460 823
 28.480 552
 28.500 428
 28.520 380
 28.540 396
 28.560 364
 28.580 327
 28.600 316
 28.620 320
 28.640 353
 28.660 320
 28.680 299
 28.700 342
 28.720 327
 28.740 320
 28.760 295
 28.780 313
 28.800 295
 28.820 400
 28.840 357
 28.860 388
 28.880 408
 28.900 408
 28.920 424
 28.940 484
 28.960 475
 28.980 561
 29.000 600
 29.020 670
 29.040 723
 29.060 817
 29.080 954
 29.100 1089
 29.120 1317
 29.140 1560
 29.160 1755
 29.180 1883
 29.200 2209
 29.220 2361
 29.240 2611
 29.260 3025
 29.280 3352
 29.300 3696
 29.320 3994
 29.340 4369
 29.360 4872
 29.380 5241
 29.400 5806
 29.420 5929
 29.440 6146
 29.460 6464
 29.480 6561
 29.500 6084
 29.520 5595
 29.540 4502
 29.560 3260
 29.580 2323
 29.600 1806
 29.620 1246
 29.640 756
 29.660 515
 29.680 441
 29.700 368
 29.720 396
 29.740 324
 29.760 316
 29.780 338
 29.800 320
 29.820 295
 29.840 292
 29.860 295
 29.880 282
 29.900 275
 29.920 252
 29.940 278
 29.960 268
 29.980 256
 30.000 246
 30.020 289
 30.040 252
 30.060 285
 30.080 278
 30.100 292
 30.120 285
 30.140 292
 30.160 289
 30.180 309
 30.200 289
 30.220 320
 30.240 278
 30.260 309
 30.280 289
 30.300 306
 30.320 320
 30.340 313
 30.360 376
 30.380 331
 30.400 380
 30.420 396
 30.440 428
 30.460 388
 30.480 445
 30.500 441
 30.520 432
 30.540 388
 30.560 441
 30.580 380
 30.600 368
 30.620 327
 30.640 295
 30.660 282
 30.680 275
 30.700 268
 30.720 243
 30.740 292
 30.760 278
 30.780 265
 30.800 295
 30.820 320
 30.840 243
 30.860 327
 30.880 320
 30.900 299
 30.920 349
 30.940 331
 30.960 349
 30.980 368
 31.000 372
 31.020 432
 31.040 492
 31.060 552
 31.080 590
 31.100 670
 31.120 718
 31.140 767
 31.160 835
 31.180 864
 31.200 1004
 31.220 1004
 31.240 1095
 31.260 1108
 31.280 1190
 31.300 1190
 31.320 1225
 31.340 1239
 31.360 1183
 31.380 1204
 31.400 1296
 31.420 1391
 31.440 1428
 31.460 1521
 31.480 1497
 31.500 1664
 31.520 1806
 31.540 1936
 31.560 2097
 31.580 2190
 31.600 2381
 31.620 2631
 31.640 2992
 31.660 3540
 31.680 3956
 31.700 4395
 31.720 4408
 31.740 4489
 31.760 4044
 31.780 3516
 31.800 2819
 31.820 2180
 31.840 1664
 31.860 1225
 31.880 973
 31.900 576
 31.920 445
 31.940 436
 31.960 376
 31.980 384
 32.000 338
 32.020 334
 32.040 353
 32.060 376
 32.080 364
 32.100 320
 32.120 345
 32.140 349
 32.160 368
 32.180 388
 32.200 361
 32.220 408
 32.240 436
 32.260 388
 32.280 420
 32.300 445
 32.320 449
 32.340 436
 32.360 466
 32.380 445
 32.400 580
 32.420 610
 32.440 660
 32.460 670
 32.480 718
 32.500 835
 32.520 906
 32.540 985
 32.560 1062
 32.580 1197
 32.600 1310
 32.620 1369
 32.640 1444
 32.660 1421
 32.680 1560
 32.700 1376
 32.720 1324
 32.740 1122
 32.760 918
 32.780 835
 32.800 645
 32.820 561
 32.840 470
 32.860 488
 32.880 462
 32.900 497
 32.920 453
 32.940 457
 32.960 529
 32.980 595
 33.000 620
 33.020 670
 33.040 712
 33.060 761
 33.080 900
 33.100 967
 33.120 1062
 33.140 1122
 33.160 1332
 33.180 1489
 33.200 1528
 33.220 1689
 33.240 1857
 33.260 2106
 33.280 2420
 33.300 2894
 33.320 3180
 33.340 3552
 33.360 4096
 33.380 4637
 33.400 5112
 33.420 5198
 33.440 5184
 33.460 5112
 33.480 5184
 33.500 5314
 33.520 5198
 33.540 5069
 33.560 4651
 33.580 4395
 33.600 4134
 33.620 3433
 33.640 2851
 33.660 2332
 33.680 1840
 33.700 1505
 33.720 1361
 33.740 1108
 33.760 876
 33.780 841
 33.800 858
 33.820 812
 33.840 846
 33.860 841
 33.880 767
 33.900 718
 33.920 739
 33.940 718
 33.960 620
 33.980 600
 34.000 590
 34.020 571
 34.040 484
 34.060 492
 34.080 524
 34.100 552
 34.120 580
 34.140 620
 34.160 676
 34.180 729
 34.200 806
 34.220 918
 34.240 1211
 34.260 1544
 34.280 1849
 34.300 1797
 34.320 1608
 34.340 1482
 34.360 1274
 34.380 1056
 34.400 912
 34.420 691
 34.440 595
 34.460 436
 34.480 384
 34.500 353
 34.520 334
 34.540 345
 34.560 353
 34.580 388
 34.600 357
 34.620 408
 34.640 372
 34.660 376
 34.680 428
 34.700 475
 34.720 501
 34.740 515
 34.760 605
 34.780 645
 34.800 620
 34.820 650
 34.840 615
 34.860 605
 34.880 620
 34.900 650
 34.920 590
 34.940 542
 34.960 524
 34.980 462
 35.000 400
 35.020 384
 35.040 357
 35.060 313
 35.080 292
 35.100 292
 35.120 275
 35.140 327
 35.160 275
 35.180 292
 35.200 265
 35.220 292
 35.240 285
 35.260 289
 35.280 272
 35.300 295
 35.320 285
 35.340 295
 35.360 289
 35.380 272
 35.400 289
 35.420 306
 35.440 309
 35.460 331
 35.480 278
 35.500 309
 35.520 309
 35.540 357
 35.560 364
 35.580 338
 35.600 342
 35.620 331
 35.640 408
 35.660 506
 35.680 547
 35.700 645
 35.720 620
 35.740 576
 35.760 580
 35.780 585
 35.800 625
 35.820 712
 35.840 650
 35.860 696
 35.880 718
 35.900 767
 35.920 806
 35.940 882
 35.960 1011
 35.980 1062
 36.000 1095
 36.020 1225
 36.040 1135
 36.060 1017
 36.080 930
 36.100 852
 36.120 681
 36.140 566
 36.160 492
 36.180 420
 36.200 392
 36.220 324
 36.240 342
 36.260 327
 36.280 316
 36.300 309
 36.320 309
 36.340 316
 36.360 320
 36.380 338
 36.400 309
 36.420 368
 36.440 345
 36.460 372
 36.480 345
 36.500 349
 36.520 388
 36.540 376
 36.560 396
 36.580 361
 36.600 357
 36.620 313
 36.640 295
 36.660 349
 36.680 278
 36.700 306
 36.720 282
 36.740 259
 36.760 243
 36.780 289
 36.800 292
 36.820 285
 36.840 272
 36.860 252
 36.880 282
 36.900 265
 36.920 278
 36.940 292
 36.960 299
 36.980 299
 37.000 327
 37.020 353
 37.040 364
 37.060 400
 37.080 338
 37.100 372
 37.120 361
 37.140 372
 37.160 404
 37.180 416
 37.200 416
 37.220 432
 37.240 424
 37.260 441
 37.280 404
 37.300 412
 37.320 408
 37.340 408
 37.360 445
 37.380 432
 37.400 436
 37.420 392
 37.440 361
 37.460 408
 37.480 376
 37.500 368
 37.520 424
 37.540 400
 37.560 412
 37.580 376
 37.600 400
 37.620 466
 37.640 449
 37.660 432
 37.680 462
 37.700 432
 37.720 416
 37.740 416
 37.760 412
 37.780 408
 37.800 416
 37.820 380
 37.840 408
 37.860 404
 37.880 396
 37.900 457
 37.920 519
 37.940 515
 37.960 524
 37.980 552
 38.000 645
 38.020 615
 38.040 670
 38.060 665
 38.080 665
 38.100 696
 38.120 707
 38.140 702
 38.160 745
 38.180 812
 38.200 852
 38.220 985
 38.240 1030
 38.260 1310
 38.280 1391
 38.300 1640
 38.320 1814
 38.340 2061
 38.360 2332
 38.380 2540
 38.400 2819
 38.420 2883
 38.440 3147
 38.460 3352
 38.480 3588
 38.500 4147
 38.520 4529
 38.540 5169
 38.560 5505
 38.580 5610
 38.600 5535
 38.620 6146
 38.640 6889
 38.660 7761
 38.680 8010
 38.700 7938
 38.720 6872
 38.740 5640
 38.760 4596
 38.780 4108
 38.800 3552
 38.820 2916
 38.840 2061
 38.860 1274
 38.880 942
 38.900 778
 38.920 650
 38.940 552
 38.960 484
 38.980 424
 39.000 453
 39.020 396
 39.040 400
 39.060 380
 39.080 380
 39.100 338
 39.120 342
 39.140 349
 39.160 327
 39.180 342
 39.200 306
 39.220 316
 39.240 331
 39.260 324
 39.280 313
 39.300 320
 39.320 316
 39.340 331
 39.360 306
 39.380 285
 39.400 313
 39.420 275
 39.440 272
 39.460 306
 39.480 292
 39.500 342
 39.520 302
 39.540 316
 39.560 295
 39.580 313
 39.600 327
 39.620 345
 39.640 361
 39.660 372
 39.680 372
 39.700 364
 39.720 349
 39.740 384
 39.760 376
 39.780 400
 39.800 384
 39.820 396
 39.840 368
 39.860 384
 39.880 400
 39.900 404
 39.920 428
 39.940 453
 39.960 396
 39.980 432
 40.000 424
 40.020 412
 40.040 420
 40.060 441
 40.080 441
 40.100 484
 40.120 441
 40.140 479
 40.160 436
 40.180 470
 40.200 436
 40.220 420
 40.240 408
 40.260 408
 40.280 376
 40.300 338
 40.320 342
 40.340 285
 40.360 309
 40.380 309
 40.400 316
 40.420 295
 40.440 265
 40.460 275
 40.480 289
 40.500 262
 40.520 275
 40.540 292
 40.560 306
 40.580 292
 40.600 324
 40.620 299
 40.640 313
 40.660 302
 40.680 292
 40.700 316
 40.720 345
 40.740 285
 40.760 278
 40.780 299
 40.800 289
 40.820 292
 40.840 289
 40.860 278
 40.880 285
 40.900 278
 40.920 262
 40.940 299
 40.960 302
 40.980 309
 41.000 320
 41.020 313
 41.040 342
 41.060 324
 41.080 306
 41.100 338
 41.120 327
 41.140 376
 41.160 327
 41.180 361
 41.200 306
 41.220 334
 41.240 345
 41.260 349
 41.280 345
 41.300 316
 41.320 331
 41.340 345
 41.360 357
 41.380 357
 41.400 404
 41.420 420
 41.440 412
 41.460 445
 41.480 484
 41.500 501
 41.520 488
 41.540 510
 41.560 510
 41.580 538
 41.600 470
 41.620 497
 41.640 529
 41.660 576
 41.680 561
 41.700 600
 41.720 585
 41.740 576
 41.760 571
 41.780 566
 41.800 556
 41.820 585
 41.840 580
 41.860 561
 41.880 552
 41.900 538
 41.920 533
 41.940 497
 41.960 524
 41.980 506
 42.000 510
 42.020 533
 42.040 566
 42.060 561
 42.080 547
 42.100 524
 42.120 501
 42.140 492
 42.160 416
 42.180 432
 42.200 428
 42.220 376
 42.240 380
 42.260 353
 42.280 376
 42.300 357
 42.320 396
 42.340 408
 42.360 384
 42.380 388
 42.400 392
 42.420 412
 42.440 453
 42.460 488
 42.480 533
 42.500 571
 42.520 605
 42.540 566
 42.560 552
 42.580 605
 42.600 625
 42.620 676
 42.640 707
 42.660 729
 42.680 745
 42.700 841
 42.720 924
 42.740 954
 42.760 1128
 42.780 1082
 42.800 1197
 42.820 1169
 42.840 1135
 42.860 1142
 42.880 1043
 42.900 954
 42.920 876
 42.940 772
 42.960 761
 42.980 645
 43.000 660
 43.020 600
 43.040 547
 43.060 515
 43.080 515
 43.100 484
 43.120 462
 43.140 533
 43.160 533
 43.180 542
 43.200 519
 43.220 552
 43.240 566
 43.260 610
 43.280 686
 43.300 691
 43.320 739
 43.340 795
 43.360 900
 43.380 942
 43.400 876
 43.420 973
 43.440 918
 43.460 1011
 43.480 1142
 43.500 1218
 43.520 1142
 43.540 1030
 43.560 979
 43.580 985
 43.600 1142
 43.620 1183
 43.640 1332
 43.660 1489
 43.680 1505
 43.700 1552
 43.720 1592
 43.740 1780
 43.760 1840
 43.780 2106
 43.800 2313
 43.820 2450
 43.840 2693
 43.860 2937
 43.880 3249
 43.900 3868
 43.920 4264
 43.940 5270
 43.960 6084
 43.980 6955
 44.000 7586
 44.020 8064
 44.040 8100
 44.060 8100
 44.080 7956
 44.100 6972
 44.120 6099
 44.140 5241
 44.160 4489
 44.180 3540
 44.200 3025
 44.220 2430
 44.240 1780
 44.260 1354
 44.280 1011
 44.300 789
 44.320 620
 44.340 615
 44.360 590
 44.380 519
 44.400 466
 44.420 479
 44.440 432
 44.460 416
 44.480 388
 44.500 400
 44.520 392
 44.540 420
 44.560 432
 44.580 428
 44.600 400
 44.620 400
 44.640 457
 44.660 457
 44.680 449
 44.700 424
 44.720 408
 44.740 441
 44.760 449
 44.780 466
 44.800 441
 44.820 420
 44.840 441
 44.860 416
 44.880 408
 44.900 372
 44.920 396
 44.940 392
 44.960 388
 44.980 412
 45.000 384
 45.020 404
 45.040 388
 45.060 408
 45.080 404
 45.100 392
 45.120 372
 45.140 388
 45.160 400
 45.180 392
 45.200 396
 45.220 404
 45.240 372
 45.260 361
 45.280 392
 45.300 408
 45.320 441
 45.340 392
 45.360 436
 45.380 470
 45.400 445
 45.420 400
 45.440 501
 45.460 492
 45.480 585
 45.500 576
 45.520 561
 45.540 576
 45.560 605
 45.580 510
 45.600 501
 45.620 466
 45.640 470
 45.660 416
 45.680 420
 45.700 400
 45.720 396
 45.740 380
 45.760 376
 45.780 331
 45.800 320
 45.820 306
 45.840 380
 45.860 364
 45.880 396
 45.900 376
 45.920 334
 45.940 392
 45.960 396
 45.980 388
 46.000 324
 46.020 357
 46.040 342
 46.060 306
 46.080 309
 46.100 313
 46.120 268
 46.140 292
 46.160 262
 46.180 243
 46.200 289
 46.220 289
 46.240 275
 46.260 252
 46.280 252
 46.300 252
 46.320 272
 46.340 249
 46.360 234
 46.380 246
 46.400 249
 46.420 278
 46.440 275
 46.460 272
 46.480 292
 46.500 282
 46.520 313
 46.540 309
 46.560 289
 46.580 313
 46.600 309
 46.620 306
 46.640 265
 46.660 338
 46.680 320
 46.700 309
 46.720 376
 46.740 384
 46.760 388
 46.780 441
 46.800 484
 46.820 466
 46.840 484
 46.860 519
 46.880 529
 46.900 529
 46.920 580
 46.940 580
 46.960 665
 46.980 676
 47.000 767
 47.020 772
 47.040 795
 47.060 812
 47.080 912
 47.100 829
 47.120 812
 47.140 846
 47.160 858
 47.180 882
 47.200 806
 47.220 806
 47.240 795
 47.260 718
 47.280 676
 47.300 600
 47.320 605
 47.340 524
 47.360 571
 47.380 515
 47.400 510
 47.420 479
 47.440 479
 47.460 470
 47.480 547
 47.500 524
 47.520 585
 47.540 635
 47.560 605
 47.580 655
 47.600 630
 47.620 650
 47.640 712
 47.660 772
 47.680 852
 47.700 912
 47.720 924
 47.740 1017
 47.760 1128
 47.780 1296
 47.800 1317
 47.820 1428
 47.840 1369
 47.860 1332
 47.880 1204
 47.900 1089
 47.920 948
 47.940 876
 47.960 817
 47.980 756
 48.000 686
 48.020 610
 48.040 547
 48.060 479
 48.080 453
 48.100 449
 48.120 400
 48.140 420
 48.160 392
 48.180 412
 48.200 392
 48.220 345
 48.240 345
 48.260 331
 48.280 313
 48.300 285
 48.320 292
 48.340 275
 48.360 289
 48.380 259
 48.400 268
 48.420 225
 48.440 249
 48.460 228
 48.480 198
 48.500 222
 48.520 219
 48.540 231
 48.560 225
 48.580 207
 48.600 243
 48.620 207
 48.640 204
 48.660 196
 48.680 237
 48.700 198
 48.720 213
 48.740 204
 48.760 262
 48.780 237
 48.800 219
 48.820 219
 48.840 213
 48.860 225
 48.880 237
 48.900 234
 48.920 201
 48.940 231
 48.960 228
 48.980 213
 49.000 234
 49.020 196
 49.040 196
 49.060 201
 49.080 216
 49.100 228
 49.120 213
 49.140 216
 49.160 196
 49.180 216
 49.200 222
 49.220 207
 49.240 216
 49.260 259
 49.280 213
 49.300 234
 49.320 231
 49.340 243
 49.360 222
 49.380 243
 49.400 272
 49.420 272
 49.440 262
 49.460 259
 49.480 234
 49.500 272
 49.520 289
 49.540 285
 49.560 306
 49.580 289
 49.600 299
 49.620 313
 49.640 313
 49.660 292
 49.680 313
 49.700 327
 49.720 316
 49.740 285
 49.760 299
 49.780 313
 49.800 295
 49.820 320
 49.840 313
 49.860 306
 49.880 334
 49.900 361
 49.920 376
 49.940 327
 49.960 368
 49.980 349
 50.000 327
 50.020 306
 50.040 313
 50.060 384
 50.080 295
 50.100 306
 50.120 327
 50.140 309
 50.160 306
 50.180 320
 50.200 302
 50.220 309
 50.240 306
 50.260 306
 50.280 388
 50.300 420
 50.320 449
 50.340 484
 50.360 462
 50.380 424
 50.400 449
 50.420 412
 50.440 412
 50.460 420
 50.480 412
 50.500 400
 50.520 400
 50.540 353
 50.560 334
 50.580 357
 50.600 320
 50.620 357
 50.640 353
 50.660 353
 50.680 349
 50.700 357
 50.720 404
 50.740 331
 50.760 338
 50.780 313
 50.800 342
 50.820 331
 50.840 285
 50.860 302
 50.880 295
 50.900 313
 50.920 275
 50.940 306
 50.960 313
 50.980 313
 51.000 316
 51.020 327
 51.040 353
 51.060 349
 51.080 364
 51.100 396
 51.120 400
 51.140 432
 51.160 462
 51.180 510
 51.200 479
 51.220 484
 51.240 400
 51.260 424
 51.280 361
 51.300 353
 51.320 368
 51.340 334
 51.360 353
 51.380 278
 51.400 259
 51.420 256
 51.440 237
 51.460 246
 51.480 240
 51.500 237
 51.520 249
 51.540 228
 51.560 243
 51.580 225
 51.600 237
 51.620 240
 51.640 246
 51.660 268
 51.680 213
 51.700 268
 51.720 272
 51.740 292
 51.760 285
 51.780 285
 51.800 265
 51.820 306
 51.840 316
 51.860 313
 51.880 309
 51.900 316
 51.920 316
 51.940 299
 51.960 345
 51.980 292
 52.000 289
 52.020 268
 52.040 289
 52.060 285
 52.080 313
 52.100 295
 52.120 262
 52.140 289
 52.160 272
 52.180 292
 52.200 313
 52.220 309
 52.240 309
 52.260 327
 52.280 327
 52.300 334
 52.320 309
 52.340 372
 52.360 376
 52.380 453
 52.400 445
 52.420 466
 52.440 457
 52.460 384
 52.480 384
 52.500 334
 52.520 368
 52.540 353
 52.560 342
 52.580 364
 52.600 309
 52.620 306
 52.640 299
 52.660 299
 52.680 278
 52.700 299
 52.720 309
 52.740 295
 52.760 324
 52.780 331
 52.800 320
 52.820 313
 52.840 316
 52.860 331
 52.880 338
 52.900 342
 52.920 364
 52.940 376
 52.960 364
 52.980 353
 53.000 357
 53.020 338
 53.040 345
 53.060 345
 53.080 316
 53.100 361
 53.120 306
 53.140 327
 53.160 313
 53.180 349
 53.200 334
 53.220 306
 53.240 349
 53.260 345
 53.280 334
 53.300 338
 53.320 306
 53.340 302
 53.360 295
 53.380 289
 53.400 302
 53.420 295
 53.440 302
 53.460 252
 53.480 282
 53.500 275
 53.520 256
 53.540 265
 53.560 292
 53.580 299
 53.600 295
 53.620 289
 53.640 309
 53.660 327
 53.680 342
 53.700 324
 53.720 364
 53.740 400
 53.760 376
 53.780 372
 53.800 404
 53.820 412
 53.840 396
 53.860 361
 53.880 376
 53.900 327
 53.920 357
 53.940 364
 53.960 357
 53.980 364
 54.000 342
 54.020 295
 54.040 313
 54.060 299
 54.080 357
 54.100 334
 54.120 353
 54.140 327
 54.160 364
 54.180 408
 54.200 349
 54.220 372
 54.240 384
 54.260 392
 54.280 372
 54.300 364
 54.320 388
 54.340 388
 54.360 432
 54.380 380
 54.400 404
 54.420 457
 54.440 428
 54.460 453
 54.480 475
 54.500 466
 54.520 457
 54.540 515
 54.560 538
 54.580 524
 54.600 510
 54.620 475
 54.640 506
 54.660 453
 54.680 445
 54.700 372
 54.720 404
 54.740 392
 54.760 361
 54.780 342
 54.800 320
 54.820 309
 54.840 289
 54.860 285
 54.880 285
 54.900 243
 54.920 240
 54.940 246
 54.960 237
 54.980 256
 55.000 231
 55.020 262
 55.040 259
 55.060 243
 55.080 225
 55.100 265
 55.120 252
 55.140 243
 55.160 259
 55.180 285
 55.200 285
 55.220 278
 55.240 292
 55.260 345
 55.280 306
 55.300 309
 55.320 320
 55.340 278
 55.360 313
 55.380 289
 55.400 299
 55.420 285
 55.440 338
 55.460 289
 55.480 295
 55.500 316
 55.520 331
 55.540 282
 55.560 309
 55.580 349
 55.600 368
 55.620 357
 55.640 302
 55.660 345
 55.680 334
 55.700 289
 55.720 320
 55.740 299
 55.760 268
 55.780 272
 55.800 289
 55.820 278
 55.840 272
 55.860 265
 55.880 237
 55.900 268
 55.920 278
 55.940 278
 55.960 262
 55.980 302
 56.000 295
 56.020 292
 56.040 268
 56.060 342
 56.080 306
 56.100 295
 56.120 320
 56.140 316
 56.160 313
 56.180 345
 56.200 334
 56.220 357
 56.240 364
 56.260 376
 56.280 384
 56.300 392
 56.320 388
 56.340 372
 56.360 396
 56.380 372
 56.400 334
 56.420 302
 56.440 309
 56.460 313
 56.480 282
 56.500 285
 56.520 259
 56.540 256
 56.560 246
 56.580 292
 56.600 285
 56.620 265
 56.640 252
 56.660 243
 56.680 259
 56.700 278
 56.720 265
 56.740 231
 56.760 272
 56.780 268
 56.800 275
 56.820 272
 56.840 282
 56.860 292
 56.880 272
 56.900 285
 56.920 262
 56.940 295
 56.960 246
 56.980 222
 57.000 240
 57.020 246
 57.040 210
 57.060 213
 57.080 207
 57.100 201
 57.120 207
 57.140 196
 57.160 201
 57.180 182
 57.200 204
 57.220 193
 57.240 198
 57.260 174
 57.280 196
 57.300 210
 57.320 182
 57.340 193
 57.360 201
 57.380 179
 57.400 193
 57.420 187
 57.440 193
 57.460 201
 57.480 176
 57.500 201
 57.520 190
 57.540 182
 57.560 201
 57.580 216
 57.600 222
 57.620 210
 57.640 240
 57.660 219
 57.680 240
 57.700 243
 57.720 219
 57.740 231
 57.760 243
 57.780 246
 57.800 243
 57.820 265
 57.840 268
 57.860 268
 57.880 302
 57.900 292
 57.920 295
 57.940 316
 57.960 338
 57.980 292
 58.000 299
 58.020 272
 58.040 262
 58.060 256
 58.080 262
 58.100 252
 58.120 259
 58.140 272
 58.160 285
 58.180 285
 58.200 295
 58.220 262
 58.240 324
 58.260 268
 58.280 306
 58.300 320
 58.320 334
 58.340 349
 58.360 388
 58.380 364
 58.400 380
 58.420 408
 58.440 436
 58.460 408
 58.480 492
 58.500 524
 58.520 552
 58.540 600
 58.560 676
 58.580 723
 58.600 686
 58.620 620
 58.640 515
 58.660 457
 58.680 457
 58.700 441
 58.720 470
 58.740 457
 58.760 445
 58.780 408
 58.800 368
 58.820 309
 58.840 345
 58.860 331
 58.880 313
 58.900 272
 58.920 282
 58.940 262
 58.960 240
 58.980 252
 59.000 262
 59.020 240
 59.040 265
 59.060 225
 59.080 240
 59.100 216
 59.120 237
 59.140 231
 59.160 246
 59.180 237
 59.200 259
 59.220 262
 59.240 256
 59.260 282
 59.280 256
 59.300 302
 59.320 275
 59.340 338
 59.360 309
 59.380 357
 59.400 309
 59.420 320
 59.440 272
 59.460 268
 59.480 256
 59.500 265
 59.520 265
 59.540 262
 59.560 259
 59.580 234
 59.600 231
 59.620 222
 59.640 234
 59.660 234
 59.680 204
 59.700 204
 59.720 225
 59.740 219
 59.760 216
 59.780 210
 59.800 201
 59.820 222
 59.840 204
 59.860 210
 59.880 207
 59.900 219
 59.920 240
 59.940 216
 59.960 184
 59.980 246
 60.000 225
 60.020 213
 60.040 219
 60.060 219
 60.080 204
 60.100 196
 60.120 184
 60.140 207
 60.160 222
 60.180 237
 60.200 187
 60.220 228
 60.240 225
 60.260 225
 60.280 243
 60.300 252
 60.320 231
 60.340 256
 60.360 265
 60.380 278
 60.400 259
 60.420 272
 60.440 256
 60.460 282
 60.480 295
 60.500 275
 60.520 262
 60.540 295
 60.560 309
 60.580 292
 60.600 306
 60.620 292
 60.640 345
 60.660 292
 60.680 313
 60.700 313
 60.720 320
 60.740 299
 60.760 285
 60.780 334
 60.800 327
 60.820 316
 60.840 320
 60.860 292
 60.880 338
 60.900 324
 60.920 349
 60.940 316
 60.960 306
 60.980 309
 61.000 334
 61.020 338
 61.040 384
 61.060 384
 61.080 412
 61.100 384
 61.120 420
 61.140 376
 61.160 372
 61.180 338
 61.200 313
 61.220 306
 61.240 265
 61.260 320
 61.280 295
 61.300 259
 61.320 252
 61.340 216
 61.360 256
 61.380 196
 61.400 174
 61.420 193
 61.440 213
 61.460 207
 61.480 184
 61.500 176
 61.520 196
 61.540 184
 61.560 196
 61.580 182
 61.600 196
 61.620 169
 61.640 169
 61.660 174
 61.680 187
 61.700 171
 61.720 190
 61.740 182
 61.760 161
 61.780 187
 61.800 201
 61.820 171
 61.840 174
 61.860 174
 61.880 174
 61.900 187
 61.920 169
 61.940 193
 61.960 196
 61.980 190
 62.000 213
 62.020 187
 62.040 182
 62.060 193
 62.080 201
 62.100 201
 62.120 201
 62.140 182
 62.160 207
 62.180 210
 62.200 219
 62.220 198
 62.240 219
 62.260 234
 62.280 222
 62.300 210
 62.320 237
 62.340 228
 62.360 222
 62.380 222
 62.400 252
 62.420 234
 62.440 237
 62.460 243
 62.480 262
 62.500 272
 62.520 292
 62.540 302
 62.560 306
 62.580 275
 62.600 234
 62.620 275
 62.640 292
 62.660 272
 62.680 327
 62.700 342
 62.720 338
 62.740 353
 62.760 313
 62.780 331
 62.800 334
 62.820 309
 62.840 299
 62.860 320
 62.880 299
 62.900 278
 62.920 285
 62.940 275
 62.960 268
 62.980 228
 63.000 259
 63.020 228
 63.040 210
 63.060 234
 63.080 231
 63.100 187
 63.120 216
 63.140 216
 63.160 234
 63.180 243
 63.200 231
 63.220 268
 63.240 237
 63.260 256
 63.280 234
 63.300 228
 63.320 272
 63.340 289
 63.360 282
 63.380 285
 63.400 292
 63.420 292
 63.440 295
 63.460 306
 63.480 327
 63.500 331
 63.520 338
 63.540 338
 63.560 353
 63.580 313
 63.600 372
 63.620 412
 63.640 392
 63.660 368
 63.680 384
 63.700 372
 63.720 309
 63.740 320
 63.760 313
 63.780 306
 63.800 285
 63.820 299
 63.840 313
 63.860 278
 63.880 331
 63.900 278
 63.920 289
 63.940 299
 63.960 285
 63.980 292
 64.000 292
 64.020 256
 64.040 265
 64.060 237
 64.080 256
 64.100 252
 64.120 278
 64.140 252
 64.160 272
 64.180 289
 64.200 222
 64.220 213
 64.240 240
 64.260 240
 64.280 216
 64.300 193
 64.320 222
 64.340 204
 64.360 219
 64.380 201
 64.400 174
 64.420 182
 64.440 210
 64.460 187
 64.480 182
 64.500 184
 64.520 196
 64.540 198
 64.560 163
 64.580 213
 64.600 171
 64.620 187
 64.640 169
 64.660 171
 64.680 182
 64.700 169
 64.720 190
 64.740 201
 64.760 190
 64.780 193
 64.800 193
 64.820 193
 64.840 179
 64.860 201
 64.880 182
 64.900 213
 64.920 216
 64.940 210
 64.960 219
 64.980 201
 65.000 219
 65.020 222
 65.040 219
 65.060 207
 65.080 210
 65.100 240
 65.120 252
 65.140 249
 65.160 278
 65.180 237
 65.200 249
 65.220 275
 65.240 292
 65.260 306
 65.280 302
 65.300 302
 65.320 345
 65.340 361
 65.360 372
 65.380 327
 65.400 380
 65.420 388
 65.440 353
 65.460 400
 65.480 372
 65.500 361
 65.520 357
 65.540 361
 65.560 338
 65.580 316
 65.600 299
 65.620 316
 65.640 292
 65.660 324
 65.680 306
 65.700 334
 65.720 299
 65.740 292
 65.760 234
 65.780 302
 65.800 256
 65.820 306
 65.840 268
 65.860 272
 65.880 256
 65.900 313
 65.920 292
 65.940 331
 65.960 357
 65.980 364
 66.000 345
 66.020 404
 66.040 376
 66.060 416
 66.080 376
 66.100 392
 66.120 466
 66.140 420
 66.160 479
 66.180 479
 66.200 510
 66.220 484
 66.240 497
 66.260 515
 66.280 506
 66.300 479
 66.320 492
 66.340 453
 66.360 445
 66.380 412
 66.400 364
 66.420 392
 66.440 384
 66.460 357
 66.480 392
 66.500 380
 66.520 372
 66.540 357
 66.560 342
 66.580 327
 66.600 306
 66.620 282
 66.640 309
 66.660 313
 66.680 295
 66.700 265
 66.720 275
 66.740 278
 66.760 272
 66.780 262
 66.800 252
 66.820 225
 66.840 240
 66.860 219
 66.880 207
 66.900 225
 66.920 216
 66.940 231
 66.960 201
 66.980 190
 67.000 196
 67.020 196
 67.040 184
 67.060 222
 67.080 201
 67.100 198
 67.120 201
 67.140 198
 67.160 182
 67.180 193
 67.200 184
 67.220 198
 67.240 184
 67.260 201
 67.280 174
 67.300 201
 67.320 198
 67.340 198
 67.360 201
 67.380 187
 67.400 179
 67.420 163
 67.440 196
 67.460 198
 67.480 207
 67.500 166
 67.520 196
 67.540 198
 67.560 174
 67.580 198
 67.600 216
 67.620 174
 67.640 201
 67.660 190
 67.680 176
 67.700 222
 67.720 196
 67.740 201
 67.760 222
 67.780 196
 67.800 213
 67.820 216
 67.840 216
 67.860 204
 67.880 231
 67.900 216
 67.920 193
 67.940 213
 67.960 228
 67.980 201
 68.000 216
 68.020 204
 68.040 213
 68.060 207
 68.080 246
 68.100 182
 68.120 256
 68.140 190
 68.160 225
 68.180 190
 68.200 190
 68.220 228
 68.240 213
 68.260 222
 68.280 187
 68.300 228
 68.320 204
 68.340 237
 68.360 196
 68.380 228
 68.400 234
 68.420 207
 68.440 207
 68.460 243
 68.480 231
 68.500 210
 68.520 231
 68.540 231
 68.560 213
 68.580 216
 68.600 237
 68.620 231
 68.640 234
 68.660 231
 68.680 231
 68.700 216
 68.720 225
 68.740 216
 68.760 201
 68.780 207
 68.800 240
 68.820 234
 68.840 249
 68.860 243
 68.880 219
 68.900 231
 68.920 249
 68.940 249
 68.960 272
 68.980 265
 69.000 282
 69.020 285
 69.040 278
 69.060 327
 69.080 295
 69.100 331
 69.120 285
 69.140 316
 69.160 302
 69.180 309
 69.200 278
 69.220 275
 69.240 256
 69.260 256
 69.280 237
 69.300 240
 69.320 256
 69.340 234
 69.360 246
 69.380 219
 69.400 225
 69.420 210
 69.440 222
 69.460 210
 69.480 182
 69.500 225
 69.520 174
 69.540 184
 69.560 213
 69.580 207
 69.600 198
 69.620 213
 69.640 225
 69.660 176
 69.680 187
 69.700 219
 69.720 210
 69.740 190
 69.760 174
 69.780 207
 69.800 207
 69.820 187
 69.840 216
 69.860 179
 69.880 179
 69.900 196
 69.920 184
 69.940 198
 69.960 187
 69.980 174
 70.000 193
 70.020 198
 70.040 198
 70.060 213
 70.080 219
 70.100 210
 70.120 219
 70.140 198
 70.160 216
 70.180 207
 70.200 219
 70.220 222
 70.240 225
 70.260 234
 70.280 231
 70.300 210
 70.320 231
 70.340 222
 70.360 237
 70.380 225
 70.400 237
 70.420 256
 70.440 249
 70.460 262
 70.480 272
 70.500 252
 70.520 272
 70.540 313
 70.560 302
 70.580 299
 70.600 306
 70.620 292
 70.640 299
 70.660 306
 70.680 275
 70.700 353
 70.720 331
 70.740 349
 70.760 392
 70.780 412
 70.800 384
 70.820 416
 70.840 392
 70.860 420
 70.880 396
 70.900 368
 70.920 349
 70.940 320
 70.960 302
 70.980 306
 71.000 299
 71.020 289
 71.040 292
 71.060 249
 71.080 278
 71.100 262
 71.120 252
 71.140 243
 71.160 252
 71.180 228
 71.200 213
 71.220 222
 71.240 187
 71.260 222
 71.280 219
 71.300 231
 71.320 228
 71.340 219
 71.360 196
 71.380 198
 71.400 231
 71.420 256
 71.440 237
 71.460 216
 71.480 234
 71.500 243
 71.520 272
 71.540 272
 71.560 222
 71.580 219
 71.600 240
 71.620 213
 71.640 222
 71.660 196
 71.680 187
 71.700 213
 71.720 219
 71.740 225
 71.760 201
 71.780 193
 71.800 166
 71.820 169
 71.840 179
 71.860 198
 71.880 174
 71.900 190
 71.920 193
 71.940 190
 71.960 161
 71.980 204
 72.000 193
 72.020 184
 72.040 166
 72.060 193
 72.080 193
 72.100 182
 72.120 176
 72.140 204
 72.160 201
 72.180 201
 72.200 207
 72.220 243
 72.240 243
 72.260 265
 72.280 268
 72.300 246
 72.320 256
 72.340 240
 72.360 278
 72.380 262
 72.400 237
 72.420 268
 72.440 265
 72.460 262
 72.480 275
 72.500 237
 72.520 259
 72.540 225
 72.560 225
 72.580 201
 72.600 234
 72.620 222
 72.640 222
 72.660 210
 72.680 222
 72.700 198
 72.720 196
 72.740 207
 72.760 187
 72.780 187
 72.800 207
 72.820 184
 72.840 201
 72.860 171
 72.880 198
 72.900 198
 72.920 176
 72.940 187
 72.960 174
 72.980 166
 73.000 174
 73.020 182
 73.040 193
 73.060 174
 73.080 207
 73.100 190
 73.120 190
 73.140 198
 73.160 182
 73.180 207
 73.200 219
 73.220 213
 73.240 210
 73.260 207
 73.280 213
 73.300 198
 73.320 204
 73.340 228
 73.360 187
 73.380 234
 73.400 246
 73.420 252
 73.440 259
 73.460 272
 73.480 275
 73.500 275
 73.520 309
 73.540 306
 73.560 324
 73.580 302
 73.600 313
 73.620 334
 73.640 324
 73.660 380
 73.680 353
 73.700 368
 73.720 327
 73.740 320
 73.760 313
 73.780 259
 73.800 256
 73.820 275
 73.840 231
 73.860 225
 73.880 228
 73.900 240
 73.920 259
 73.940 259
 73.960 222
 73.980 225
 74.000 207
 74.020 213
 74.040 198
 74.060 182
 74.080 182
 74.100 174
 74.120 182
 74.140 161
 74.160 148
 74.180 151
 74.200 174
 74.220 153
 74.240 176
 74.260 158
 74.280 187
 74.300 193
 74.320 171
 74.340 179
 74.360 179
 74.380 184
 74.400 171
 74.420 153
 74.440 182
 74.460 184
 74.480 184
 74.500 182
 74.520 169
 74.540 174
 74.560 166
 74.580 163
 74.600 158
 74.620 210
 74.640 182
 74.660 163
 74.680 174
 74.700 198
 74.720 187
 74.740 210
 74.760 176
 74.780 174
 74.800 179
 74.820 196
 74.840 213
 74.860 222
 74.880 234
 74.900 198
 74.920 193
 74.940 216
 74.960 187
 74.980 213
 75.000 182
 75.020 204
 75.040 182
 75.060 198
 75.080 216
 75.100 187
 75.120 187
 75.140 190
 75.160 182
 75.180 193
 75.200 210
 75.220 190
 75.240 207
 75.260 196
 75.280 198
 75.300 193
 75.320 190
 75.340 213
 75.360 213
 75.380 174
 75.400 201
 75.420 176
 75.440 213
 75.460 198
 75.480 176
 75.500 207
 75.520 216
 75.540 222
 75.560 193
 75.580 231
 75.600 228
 75.620 213
 75.640 216
 75.660 231
 75.680 213
 75.700 210
 75.720 219
 75.740 216
 75.760 240
 75.780 213
 75.800 228
 75.820 249
 75.840 228
 75.860 222
 75.880 222
 75.900 219
 75.920 231
 75.940 210
 75.960 234
 75.980 210
 76.000 225
 76.020 210
 76.040 196
 76.060 234
 76.080 219
 76.100 193
 76.120 182
 76.140 187
 76.160 184
 76.180 196
 76.200 179
 76.220 171
 76.240 187
 76.260 198
 76.280 182
 76.300 210
 76.320 196
 76.340 201
 76.360 210
 76.380 201
 76.400 225
 76.420 213
 76.440 237
 76.460 201
 76.480 228
 76.500 207
 76.520 198
 76.540 225
 76.560 228
 76.580 216
 76.600 246
 76.620 213
 76.640 190
 76.660 228
 76.680 204
 76.700 198
 76.720 193
 76.740 213
 76.760 216
 76.780 201
 76.800 225
 76.820 198
 76.840 219
 76.860 198
 76.880 213
 76.900 228
 76.920 207
 76.940 193
 76.960 196
 76.980 222
 77.000 231
 77.020 207
 77.040 228
 77.060 204
 77.080 228
 77.100 210
 77.120 219
 77.140 222
 77.160 216
 77.180 246
 77.200 219
 77.220 228
 77.240 198
 77.260 210
 77.280 225
 77.300 174
 77.320 213
 77.340 182
 77.360 204
 77.380 193
 77.400 196
 77.420 201
 77.440 198
 77.460 228
 77.480 187
 77.500 213
 77.520 187
 77.540 213
 77.560 216
 77.580 207
 77.600 201
 77.620 201
 77.640 207
 77.660 201
 77.680 234
 77.700 207
 77.720 182
 77.740 201
 77.760 196
 77.780 252
 77.800 207
 77.820 198
 77.840 216
 77.860 216
 77.880 210
 77.900 231
 77.920 207
 77.940 198
 77.960 201
 77.980 231
 78.000 213
 78.020 225
 78.040 234
 78.060 243
 78.080 243
 78.100 201
 78.120 222
 78.140 219
 78.160 219
 78.180 228
 78.200 256
 78.220 201
 78.240 201
 78.260 204
 78.280 213
 78.300 204
 78.320 225
 78.340 243
 78.360 219
 78.380 219
 78.400 193
 78.420 228
 78.440 207
 78.460 184
 78.480 196
 78.500 196
 78.520 204
 78.540 201
 78.560 179
 78.580 193
 78.600 169
 78.620 182
 78.640 219
 78.660 190
 78.680 171
 78.700 196
 78.720 190
 78.740 201
 78.760 174
 78.780 163
 78.800 163
 78.820 196
 78.840 204
 78.860 193
 78.880 187
 78.900 169
 78.920 169
 78.940 176
 78.960 198
 78.980 210
 79.000 198
 79.020 182
 79.040 193
 79.060 174
 79.080 219
 79.100 219
 79.120 216
 79.140 201
 79.160 237
 79.180 201
 79.200 187
 79.220 207
 79.240 225
 79.260 213
 79.280 176
 79.300 204
 79.320 207
 79.340 201
 79.360 225
 79.380 228
 79.400 207
 79.420 237
 79.440 228
 79.460 237
 79.480 228
 79.500 240
 79.520 240
 79.540 272
 79.560 278
 79.580 278
 79.600 265
 79.620 268
 79.640 299
 79.660 268
 79.680 282
 79.700 278
 79.720 272
 79.740 289
 79.760 259
 79.780 246
 79.800 275
 79.820 265
 79.840 265
 79.860 237
 79.880 265
 79.900 259
 79.920 225
 79.940 237
 79.960 213
 79.980 219
 80.000 219
 80.020 196
 80.040 234
 80.060 213
 80.080 198
 80.100 187
 80.120 201
 80.140 213
 80.160 169
 80.180 190
 80.200 182
 80.220 166
 80.240 174
 80.260 174
 80.280 193
 80.300 163
 80.320 179
 80.340 179
 80.360 184
 80.380 207
 80.400 182
 80.420 190
 80.440 193
 80.460 158
 80.480 179
 80.500 207
 80.520 187
 80.540 179
 80.560 216
 80.580 161
 80.600 187
 80.620 196
 80.640 213
 80.660 187
 80.680 219
 80.700 201
 80.720 225
 80.740 243
 80.760 222
 80.780 213
 80.800 210
 80.820 176
 80.840 207
 80.860 187
 80.880 184
 80.900 187
 80.920 204
 80.940 196
 80.960 198
 80.980 207
 81.000 201
 81.020 187
 81.040 161
 81.060 174
 81.080 136
 81.100 156
 81.120 176
 81.140 169
 81.160 139
 81.180 153
 81.200 153
 81.220 171
 81.240 184
 81.260 163
 81.280 163
 81.300 169
 81.320 161
 81.340 158
 81.360 158
 81.380 166
 81.400 176
 81.420 182
 81.440 163
 81.460 144
 81.480 184
 81.500 169
 81.520 153
 81.540 166
 81.560 148
 81.580 169
 81.600 146
 81.620 163
 81.640 169
 81.660 153
 81.680 139
 81.700 179
 81.720 158
 81.740 171
 81.760 161
 81.780 148
 81.800 161
 81.820 169
 81.840 151
 81.860 169
 81.880 153
 81.900 169
 81.920 161
 81.940 184
 81.960 176
 81.980 169
 82.000 171
 82.020 176
 82.040 171
 82.060 182
 82.080 184
 82.100 169
 82.120 193
 82.140 187
 82.160 174
 82.180 198
 82.200 196
 82.220 196
 82.240 216
 82.260 176
 82.280 210
 82.300 219
 82.320 222
 82.340 216
 82.360 216
 82.380 176
 82.400 213
 82.420 256
 82.440 222
 82.460 265
 82.480 262
 82.500 246
 82.520 252
 82.540 272
 82.560 268
 82.580 262
 82.600 225
 82.620 246
 82.640 262
 82.660 228
 82.680 228
 82.700 222
 82.720 213
 82.740 210
 82.760 184
 82.780 216
 82.800 198
 82.820 193
 82.840 210
 82.860 207
 82.880 201
 82.900 210
 82.920 216
 82.940 204
 82.960 201
 82.980 193
 83.000 174
 83.020 225
 83.040 219
 83.060 198
 83.080 210
 83.100 187
 83.120 190
 83.140 246
 83.160 231
 83.180 213
 83.200 201
 83.220 249
 83.240 262
 83.260 219
 83.280 246
 83.300 243
 83.320 237
 83.340 225
 83.360 249
 83.380 201
 83.400 219
 83.420 216
 83.440 213
 83.460 210
 83.480 196
 83.500 216
 83.520 219
 83.540 204
 83.560 213
 83.580 184
 83.600 216
 83.620 201
 83.640 204
 83.660 179
 83.680 174
 83.700 216
 83.720 171
 83.740 187
 83.760 169
 83.780 174
 83.800 196
 83.820 174
 83.840 179
 83.860 184
 83.880 171
 83.900 176
 83.920 161
 83.940 196
 83.960 179
 83.980 179
 84.000 184
 84.020 171
 84.040 210
 84.060 207
 84.080 201
 84.100 204
 84.120 196
 84.140 207
 84.160 204
 84.180 213
 84.200 201
 84.220 196
 84.240 207
 84.260 225
 84.280 210
 84.300 182
 84.320 237
 84.340 207
 84.360 204
 84.380 225
 84.400 210
 84.420 240
 84.440 234
 84.460 243
 84.480 256
 84.500 240
 84.520 237
 84.540 225
 84.560 207
 84.580 207
 84.600 196
 84.620 225
 84.640 222
 84.660 207
 84.680 204
 84.700 196
 84.720 231
 84.740 219
 84.760 225
 84.780 193
 84.800 210
 84.820 184
 84.840 193
 84.860 179
 84.880 187
 84.900 193
 84.920 190
 84.940 182
 84.960 190
 84.980 190
 85.000 176
 85.020 190
 85.040 166
 85.060 193
 85.080 196
 85.100 193
 85.120 163
 85.140 196
 85.160 201
 85.180 210
 85.200 216
 85.220 210
 85.240 219
 85.260 222
 85.280 187
 85.300 207
 85.320 182
 85.340 222
 85.360 193
 85.380 219
 85.400 219
 85.420 234
 85.440 176
 85.460 176
 85.480 201
 85.500 184
 85.520 187
 85.540 184
 85.560 176
 85.580 210
 85.600 166
 85.620 198
 85.640 182
 85.660 193
 85.680 176
 85.700 171
 85.720 182
 85.740 201
 85.760 174
 85.780 163
 85.800 176
 85.820 174
 85.840 174
 85.860 146
 85.880 184
 85.900 187
 85.920 193
 85.940 148
 85.960 169
 85.980 156
 86.000 196
 86.020 196
 86.040 182
 86.060 171
 86.080 158
 86.100 179
 86.120 176
 86.140 201
 86.160 190
 86.180 187
 86.200 179
 86.220 182
 86.240 179
 86.260 193
 86.280 176
 86.300 174
 86.320 196
 86.340 184
 86.360 153
 86.380 161
 86.400 169
 86.420 174
 86.440 190
 86.460 153
 86.480 179
 86.500 174
 86.520 161
 86.540 176
 86.560 171
 86.580 158
 86.600 161
 86.620 161
 86.640 156
 86.660 169
 86.680 161
 86.700 161
 86.720 153
 86.740 169
 86.760 161
 86.780 169
 86.800 174
 86.820 169
 86.840 182
 86.860 176
 86.880 171
 86.900 179
 86.920 196
 86.940 182
 86.960 171
 86.980 190
 87.000 163
 87.020 198
 87.040 171
 87.060 176
 87.080 201
 87.100 222
 87.120 198
 87.140 193
 87.160 190
 87.180 219
 87.200 184
 87.220 182
 87.240 179
 87.260 216
 87.280 176
 87.300 184
 87.320 207
 87.340 184
 87.360 176
 87.380 201
 87.400 187
 87.420 169
 87.440 184
 87.460 179
 87.480 201
 87.500 193
 87.520 163
 87.540 174
 87.560 176
 87.580 179
 87.600 184
 87.620 187
 87.640 179
 87.660 163
 87.680 179
 87.700 179
 87.720 163
 87.740 166
 87.760 161
 87.780 179
 87.800 161
 87.820 182
 87.840 176
 87.860 169
 87.880 156
 87.900 139
 87.920 166
 87.940 174
 87.960 171
 87.980 166
 88.000 163
 88.020 156
 88.040 156
 88.060 174
 88.080 184
 88.100 210
 88.120 184
 88.140 176
 88.160 182
 88.180 169
 88.200 196
 88.220 187
 88.240 174
 88.260 171
 88.280 182
 88.300 196
 88.320 182
 88.340 184
 88.360 163
 88.380 176
 88.400 176
 88.420 198
 88.440 166
 88.460 182
 88.480 196
 88.500 179
 88.520 182
 88.540 156
 88.560 171
 88.580 169
 88.600 129
 88.620 179
 88.640 176
 88.660 158
 88.680 153
 88.700 176
 88.720 153
 88.740 174
 88.760 176
 88.780 153
 88.800 161
 88.820 158
 88.840 166
 88.860 171
 88.880 161
 88.900 169
 88.920 174
 88.940 144
 88.960 163
 88.980 184
 89.000 146
 89.020 176
 89.040 182
 89.060 171
 89.080 182
 89.100 184
 89.120 151
 89.140 166
 89.160 182
 89.180 169
 89.200 163
 89.220 148
 89.240 193
 89.260 187
 89.280 161
 89.300 187
 89.320 174
 89.340 171
 89.360 176
 89.380 182
 89.400 207
 89.420 184
 89.440 182
 89.460 187
 89.480 179
 89.500 176
 89.520 198
 89.540 193
 89.560 207
 89.580 163
 89.600 179
 89.620 196
 89.640 210
 89.660 222
 89.680 201
 89.700 216
 89.720 179
 89.740 196
 89.760 196
 89.780 225
 89.800 216
 89.820 196
 89.840 210
 89.860 207
 89.880 213
 89.900 213
 89.920 201
 89.940 228
 89.960 176
 89.980 171
 90.000 169
 90.020 156
 90.040 193
 90.060 184
 90.080 163
 90.100 163
 90.120 166
 90.140 148
 90.160 196
 90.180 196
 90.200 213
 90.220 174
 90.240 174
 90.260 184
 90.280 171
 90.300 163
 90.320 153
 90.340 196
 90.360 161
 90.380 163
 90.400 151
 90.420 161
 90.440 182
 90.460 169
 90.480 166
 90.500 158
 90.520 151
 90.540 158
 90.560 182
 90.580 176
 90.600 176
 90.620 174
 90.640 190
 90.660 176
 90.680 158
 90.700 158
 90.720 179
 90.740 171
 90.760 174
 90.780 169
 90.800 163
 90.820 151
 90.840 139
 90.860 158
 90.880 153
 90.900 161
 90.920 148
 90.940 146
 90.960 153
 90.980 148
 91.000 141
 91.020 132
 91.040 141
 91.060 153
 91.080 139
 91.100 169
 91.120 174
 91.140 141
 91.160 153
 91.180 151
 91.200 148
 91.220 163
 91.240 141
 91.260 144
 91.280 129
 91.300 163
 91.320 139
 91.340 116
 91.360 134
 91.380 151
 91.400 136
 91.420 132
 91.440 141
 91.460 153
 91.480 153
 91.500 141
 91.520 146
 91.540 134
 91.560 158
 91.580 148
 91.600 139
 91.620 151
 91.640 146
 91.660 136
 91.680 163
 91.700 139
 91.720 151
 91.740 158
 91.760 141
 91.780 146
 91.800 151
 91.820 153
 91.840 136
 91.860 141
 91.880 139
 91.900 156
 91.920 153
 91.940 151
 91.960 144
 91.980 158
 92.000 146
 92.020 156
 92.040 151
 92.060 158
 92.080 148
 92.100 156
 92.120 158
 92.140 144
 92.160 166
 92.180 158
 92.200 136
 92.220 163
 92.240 153
 92.260 156
 92.280 174
 92.300 144
 92.320 136
 92.340 156
 92.360 136
 92.380 153
 92.400 146
 92.420 132
 92.440 144
 92.460 141
 92.480 146
 92.500 136
 92.520 121
 92.540 112
 92.560 123
 92.580 132
 92.600 148
 92.620 153
 92.640 148
 92.660 125
 92.680 139
 92.700 129
 92.720 144
 92.740 129
 92.760 146
 92.780 125
 92.800 144
 92.820 144
 92.840 148
 92.860 158
 92.880 153
 92.900 153
 92.920 134
 92.940 153
 92.960 148
 92.980 171
 93.000 141
 93.020 156
 93.040 153
 93.060 148
 93.080 139
 93.100 153
 93.120 151
 93.140 148
 93.160 158
 93.180 161
 93.200 179
 93.220 156
 93.240 161
 93.260 148
 93.280 163
 93.300 169
 93.320 156
 93.340 171
 93.360 166
 93.380 146
 93.400 158
 93.420 171
 93.440 156
 93.460 151
 93.480 174
 93.500 176
 93.520 169
 93.540 196
 93.560 196
 93.580 201
 93.600 201
 93.620 176
 93.640 176
 93.660 204
 93.680 207
 93.700 190
 93.720 179
 93.740 184
 93.760 231
 93.780 190
 93.800 193
 93.820 182
 93.840 187
 93.860 201
 93.880 174
 93.900 163
 93.920 163
 93.940 187
 93.960 176
 93.980 169
 94.000 184
 94.020 187
 94.040 204
 94.060 198
 94.080 204
 94.100 179
 94.120 210
 94.140 187
 94.160 182
 94.180 187
 94.200 184
 94.220 207
 94.240 171
 94.260 182
 94.280 201
 94.300 153
 94.320 207
 94.340 179
 94.360 179
 94.380 184
 94.400 196
 94.420 182
 94.440 201
 94.460 198
 94.480 179
 94.500 174
 94.520 179
 94.540 190
 94.560 193
 94.580 163
 94.600 158
 94.620 187
 94.640 184
 94.660 184
 94.680 169
 94.700 174
 94.720 158
 94.740 151
 94.760 163
 94.780 161
 94.800 169
 94.820 169
 94.840 174
 94.860 166
 94.880 198
 94.900 182
 94.920 174
 94.940 156
 94.960 198
 94.980 184
 95.000 176
 95.020 187
 95.040 182
 95.060 182
 95.080 182
 95.100 153
 95.120 176
 95.140 174
 95.160 156
 95.180 198
 95.200 204
 95.220 166
 95.240 179
 95.260 169
 95.280 174
 95.300 156
 95.320 176
 95.340 161
 95.360 193
 95.380 196
 95.400 190
 95.420 179
 95.440 136
 95.460 204
 95.480 174
 95.500 156
 95.520 153
 95.540 146
 95.560 153
 95.580 158
 95.600 144
 95.620 144
 95.640 121
 95.660 146
 95.680 141
 95.700 146
 95.720 148
 95.740 129
 95.760 139
 95.780 132
 95.800 139
 95.820 136
 95.840 146
 95.860 158
 95.880 151
 95.900 134
 95.920 144
 95.940 166
 95.960 144
 95.980 151
 96.000 166
 96.020 151
 96.040 169
 96.060 148
 96.080 163
 96.100 171
 96.120 184
 96.140 169
 96.160 121
 96.180 139
 96.200 190
 96.220 184
 96.240 184
 96.260 201
 96.280 193
 96.300 198
 96.320 179
 96.340 182
 96.360 201
 96.380 196
 96.400 182
 96.420 158
 96.440 163
 96.460 182
 96.480 176
 96.500 184
 96.520 148
 96.540 163
 96.560 163
 96.580 187
 96.600 146
 96.620 158
 96.640 174
 96.660 169
 96.680 156
 96.700 184
 96.720 156
 96.740 161
 96.760 158
 96.780 148
 96.800 176
 96.820 144
 96.840 174
 96.860 163
 96.880 139
 96.900 132
 96.920 156
 96.940 121
 96.960 141
 96.980 139
 97.000 169
 97.020 127
 97.040 146
 97.060 118
 97.080 148
 97.100 132
 97.120 153
 97.140 127
 97.160 121
 97.180 123
 97.200 118
 97.220 123
 97.240 121
 97.260 134
 97.280 151
 97.300 132
 97.320 121
 97.340 121
 97.360 132
 97.380 123
 97.400 136
 97.420 125
 97.440 148
 97.460 153
 97.480 136
 97.500 136
 97.520 139
 97.540 129
 97.560 127
 97.580 163
 97.600 148
 97.620 139
 97.640 144
 97.660 148
 97.680 151
 97.700 151
 97.720 136
 97.740 169
 97.760 156
 97.780 132
 97.800 146
 97.820 127
 97.840 132
 97.860 129
 97.880 125
 97.900 125
 97.920 136
 97.940 144
 97.960 156
 97.980 134
 98.000 129
 98.020 156
 98.040 127
 98.060 144
 98.080 118
 98.100 123
 98.120 127
 98.140 141
 98.160 146
 98.180 125
 98.200 134
 98.220 148
 98.240 123
 98.260 151
 98.280 129
 98.300 118
 98.320 132
 98.340 121
 98.360 123
 98.380 116
 98.400 134
 98.420 136
 98.440 141
 98.460 144
 98.480 129
 98.500 158
 98.520 116
 98.540 127
 98.560 114
 98.580 148
 98.600 139
 98.620 139
 98.640 132
 98.660 121
 98.680 136
 98.700 129
 98.720 136
 98.740 144
 98.760 139
 98.780 129
 98.800 144
 98.820 144
 98.840 151
 98.860 134
 98.880 123
 98.900 141
 98.920 127
 98.940 141
 98.960 141
 98.980 148
 99.000 148
 99.020 136
 99.040 134
 99.060 153
 99.080 139
 99.100 129
 99.120 132
 99.140 153
 99.160 151
 99.180 146
 99.200 169
 99.220 144
 99.240 144
 99.260 153
 99.280 144
 99.300 136
 99.320 148
 99.340 134
 99.360 136
 99.380 148
 99.400 139
 99.420 127
 99.440 129
 99.460 148
 99.480 129
 99.500 151
 99.520 134
 99.540 123
 99.560 163
 99.580 136
 99.600 141
 99.620 151
 99.640 141
 99.660 156
 99.680 148
 99.700 136
 99.720 110
 99.740 125
 99.760 146
 99.780 129
 99.800 134
 99.820 139
 99.840 146
 99.860 153
 99.880 146
 99.900 132
 99.920 134
 99.940 129
 99.960 163
 99.980 134
100.000 148
