  5.000 179
  5.020 158
  5.040 161
  5.060 190
  5.080 148
  5.100 179
  5.120 171
  5.140 166
  5.160 176
  5.180 163
  5.200 166
  5.220 158
  5.240 158
  5.260 176
  5.280 158
  5.300 182
  5.320 163
  5.340 161
  5.360 144
  5.380 163
  5.400 148
  5.420 166
  5.440 166
  5.460 148
  5.480 176
  5.500 179
  5.520 184
  5.540 139
  5.560 148
  5.580 148
  5.600 158
  5.620 158
  5.640 148
  5.660 148
  5.680 153
  5.700 166
  5.720 148
  5.740 151
  5.760 158
  5.780 158
  5.800 174
  5.820 163
  5.840 163
  5.860 144
  5.880 151
  5.900 158
  5.920 166
  5.940 148
  5.960 158
  5.980 184
  6.000 161
  6.020 166
  6.040 174
  6.060 151
  6.080 193
  6.100 174
  6.120 204
  6.140 193
  6.160 193
  6.180 169
  6.200 193
  6.220 243
  6.240 201
  6.260 222
  6.280 219
  6.300 256
  6.320 259
  6.340 256
  6.360 249
  6.380 292
  6.400 302
  6.420 309
  6.440 353
  6.460 338
  6.480 388
  6.500 420
  6.520 432
  6.540 479
  6.560 552
  6.580 580
  6.600 650
  6.620 691
  6.640 806
  6.660 894
  6.680 985
  6.700 1115
  6.720 1260
  6.740 1505
  6.760 1713
  6.780 2043
  6.800 2352
  6.820 2714
  6.840 3433
  6.860 4435
  6.880 5155
  6.900 6068
  6.920 6068
  6.940 5241
  6.960 3660
  6.980 2275
  7.000 1036
  7.020 424
  7.040 252
  7.060 207
  7.080 201
  7.100 184
  7.120 156
  7.140 169
  7.160 182
  7.180 144
  7.200 141
  7.220 139
  7.240 141
  7.260 146
  7.280 112
  7.300 112
  7.320 123
  7.340 132
  7.360 151
  7.380 125
  7.400 136
  7.420 121
  7.440 144
  7.460 110
  7.480 136
  7.500 125
  7.520 132
  7.540 127
  7.560 129
  7.580 127
  7.600 146
  7.620 148
  7.640 129
  7.660 129
  7.680 129
  7.700 108
  7.720 125
  7.740 132
  7.760 121
  7.780 112
  7.800 123
  7.820 106
  7.840 123
  7.860 112
  7.880 121
  7.900 112
  7.920 121
  7.940 116
  7.960 106
  7.980 118
  8.000 114
  8.020 118
  8.040 129
  8.060 132
  8.080 110
  8.100 98
  8.120 116
  8.140 132
  8.160 129
  8.180 136
  8.200 110
  8.220 116
  8.240 112
  8.260 125
  8.280 112
  8.300 108
  8.320 114
  8.340 106
  8.360 116
  8.380 118
  8.400 98
  8.420 88
  8.440 112
  8.460 118
  8.480 132
  8.500 104
  8.520 110
  8.540 110
  8.560 98
  8.580 108
  8.600 125
  8.620 98
  8.640 134
  8.660 104
  8.680 100
  8.700 110
  8.720 96
  8.740 96
  8.760 98
  8.780 90
  8.800 108
  8.820 104
  8.840 127
  8.860 104
  8.880 94
  8.900 106
  8.920 110
  8.940 106
  8.960 127
  8.980 100
  9.000 114
  9.020 102
  9.040 112
  9.060 110
  9.080 104
  9.100 104
  9.120 104
  9.140 104
  9.160 112
  9.180 110
  9.200 96
  9.220 102
  9.240 106
  9.260 100
  9.280 118
  9.300 90
  9.320 98
  9.340 96
  9.360 94
  9.380 94
  9.400 100
  9.420 114
  9.440 110
  9.460 94
  9.480 100
  9.500 123
  9.520 90
  9.540 104
  9.560 96
  9.580 106
  9.600 114
  9.620 96
  9.640 92
  9.660 104
  9.680 110
  9.700 92
  9.720 110
  9.740 104
  9.760 94
  9.780 96
  9.800 108
  9.820 102
  9.840 98
  9.860 106
  9.880 104
  9.900 98
  9.920 92
  9.940 102
  9.960 108
  9.980 116
 10.000 102
 10.020 88
 10.040 100
 10.060 114
 10.080 98
 10.100 106
 10.120 110
 10.140 127
 10.160 110
 10.180 118
 10.200 121
 10.220 129
 10.240 123
 10.260 148
 10.280 144
 10.300 148
 10.320 153
 10.340 156
 10.360 176
 10.380 187
 10.400 198
 10.420 234
 10.440 231
 10.460 246
 10.480 285
 10.500 259
 10.520 262
 10.540 231
 10.560 201
 10.580 169
 10.600 144
 10.620 112
 10.640 100
 10.660 118
 10.680 92
 10.700 116
 10.720 114
 10.740 110
 10.760 102
 10.780 108
 10.800 104
 10.820 94
 10.840 86
 10.860 100
 10.880 100
 10.900 108
 10.920 114
 10.940 96
 10.960 104
 10.980 98
 11.000 96
 11.020 94
 11.040 100
 11.060 123
 11.080 92
 11.100 110
 11.120 104
 11.140 77
 11.160 136
 11.180 96
 11.200 77
 11.220 98
 11.240 98
 11.260 82
 11.280 96
 11.300 121
 11.320 112
 11.340 102
 11.360 88
 11.380 102
 11.400 118
 11.420 114
 11.440 114
 11.460 98
 11.480 88
 11.500 118
 11.520 106
 11.540 108
 11.560 84
 11.580 112
 11.600 102
 11.620 100
 11.640 92
 11.660 96
 11.680 108
 11.700 92
 11.720 104
 11.740 125
 11.760 121
 11.780 88
 11.800 110
 11.820 92
 11.840 94
 11.860 106
 11.880 121
 11.900 134
 11.920 102
 11.940 114
 11.960 100
 11.980 106
 12.000 108
 12.020 136
 12.040 153
 12.060 136
 12.080 139
 12.100 153
 12.120 163
 12.140 123
 12.160 114
 12.180 121
 12.200 100
 12.220 100
 12.240 102
 12.260 112
 12.280 106
 12.300 108
 12.320 86
 12.340 96
 12.360 104
 12.380 90
 12.400 102
 12.420 112
 12.440 108
 12.460 108
 12.480 88
 12.500 123
 12.520 100
 12.540 102
 12.560 108
 12.580 100
 12.600 116
 12.620 121
 12.640 102
 12.660 90
 12.680 106
 12.700 84
 12.720 104
 12.740 108
 12.760 96
 12.780 102
 12.800 106
 12.820 104
 12.840 121
 12.860 98
 12.880 136
 12.900 116
 12.920 134
 12.940 106
 12.960 129
 12.980 104
 13.000 132
 13.020 110
 13.040 123
 13.060 116
 13.080 121
 13.100 106
 13.120 118
 13.140 104
 13.160 118
 13.180 88
 13.200 94
 13.220 110
 13.240 108
 13.260 114
 13.280 108
 13.300 118
 13.320 108
 13.340 132
 13.360 98
 13.380 112
 13.400 108
 13.420 118
 13.440 129
 13.460 121
 13.480 148
 13.500 136
 13.520 144
 13.540 144
 13.560 129
 13.580 163
 13.600 176
 13.620 204
 13.640 198
 13.660 234
 13.680 228
 13.700 289
 13.720 334
 13.740 376
 13.760 470
 13.780 561
 13.800 670
 13.820 829
 13.840 906
 13.860 961
 13.880 1004
 13.900 900
 13.920 739
 13.940 547
 13.960 466
 13.980 416
 14.000 424
 14.020 445
 14.040 529
 14.060 580
 14.080 729
 14.100 800
 14.120 985
 14.140 1089
 14.160 1346
 14.180 1584
 14.200 1918
 14.220 2323
 14.240 2883
 14.260 3564
 14.280 4356
 14.300 5358
 14.320 6496
 14.340 7638
 14.360 8190
 14.380 8445
 14.400 8136
 14.420 7344
 14.440 6272
 14.460 5270
 14.480 3794
 14.500 2520
 14.520 1632
 14.540 1082
 14.560 795
 14.580 712
 14.600 778
 14.620 823
 14.640 936
 14.660 1162
 14.680 1310
 14.700 1260
 14.720 1310
 14.740 1142
 14.760 918
 14.780 615
 14.800 376
 14.820 285
 14.840 198
 14.860 190
 14.880 182
 14.900 174
 14.920 156
 14.940 163
 14.960 139
 14.980 144
 15.000 136
 15.020 121
 15.040 144
 15.060 125
 15.080 151
 15.100 129
 15.120 144
 15.140 158
 15.160 153
 15.180 163
 15.200 169
 15.220 184
 15.240 169
 15.260 213
 15.280 222
 15.300 289
 15.320 278
 15.340 289
 15.360 295
 15.380 278
 15.400 246
 15.420 225
 15.440 171
 15.460 171
 15.480 121
 15.500 123
 15.520 129
 15.540 134
 15.560 129
 15.580 116
 15.600 100
 15.620 127
 15.640 132
 15.660 110
 15.680 114
 15.700 116
 15.720 123
 15.740 139
 15.760 129
 15.780 139
 15.800 139
 15.820 134
 15.840 144
 15.860 190
 15.880 213
 15.900 225
 15.920 240
 15.940 259
 15.960 282
 15.980 331
 16.000 357
 16.020 368
 16.040 501
 16.060 510
 16.080 610
 16.100 625
 16.120 681
 16.140 640
 16.160 590
 16.180 576
 16.200 484
 16.220 404
 16.240 309
 16.260 256
 16.280 193
 16.300 198
 16.320 158
 16.340 163
 16.360 156
 16.380 148
 16.400 166
 16.420 171
 16.440 153
 16.460 166
 16.480 171
 16.500 193
 16.520 213
 16.540 256
 16.560 282
 16.580 313
 16.600 388
 16.620 432
 16.640 492
 16.660 552
 16.680 571
 16.700 595
 16.720 585
 16.740 576
 16.760 561
 16.780 552
 16.800 585
 16.820 585
 16.840 605
 16.860 635
 16.880 605
 16.900 580
 16.920 635
 16.940 756
 16.960 817
 16.980 1024
 17.000 1156
 17.020 1346
 17.040 1391
 17.060 1444
 17.080 1391
 17.100 1225
 17.120 985
 17.140 812
 17.160 590
 17.180 470
 17.200 388
 17.220 316
 17.240 302
 17.260 275
 17.280 278
 17.300 295
 17.320 342
 17.340 368
 17.360 353
 17.380 372
 17.400 299
 17.420 268
 17.440 237
 17.460 179
 17.480 139
 17.500 144
 17.520 144
 17.540 136
 17.560 139
 17.580 144
 17.600 123
 17.620 144
 17.640 136
 17.660 146
 17.680 161
 17.700 139
 17.720 127
 17.740 136
 17.760 163
 17.780 125
 17.800 141
 17.820 166
 17.840 176
 17.860 158
 17.880 176
 17.900 171
 17.920 210
 17.940 225
 17.960 259
 17.980 272
 18.000 299
 18.020 353
 18.040 380
 18.060 364
 18.080 338
 18.100 285
 18.120 234
 18.140 196
 18.160 179
 18.180 158
 18.200 176
 18.220 163
 18.240 158
 18.260 139
 18.280 136
 18.300 144
 18.320 148
 18.340 136
 18.360 144
 18.380 144
 18.400 110
 18.420 141
 18.440 121
 18.460 125
 18.480 136
 18.500 136
 18.520 121
 18.540 151
 18.560 129
 18.580 108
 18.600 110
 18.620 151
 18.640 134
 18.660 116
 18.680 121
 18.700 116
 18.720 144
 18.740 148
 18.760 141
 18.780 161
 18.800 156
 18.820 148
 18.840 136
 18.860 125
 18.880 136
 18.900 134
 18.920 136
 18.940 141
 18.960 141
 18.980 156
 19.000 134
 19.020 146
 19.040 187
 19.060 182
 19.080 179
 19.100 156
 19.120 207
 19.140 204
 19.160 204
 19.180 231
 19.200 282
 19.220 313
 19.240 299
 19.260 380
 19.280 412
 19.300 479
 19.320 610
 19.340 750
 19.360 894
 19.380 1128
 19.400 1376
 19.420 1624
 19.440 1998
 19.460 2227
 19.480 2323
 19.500 2540
 19.520 2410
 19.540 2313
 19.560 2180
 19.580 2180
 19.600 2088
 19.620 1857
 19.640 1600
 19.660 1317
 19.680 992
 19.700 800
 19.720 676
 19.740 561
 19.760 595
 19.780 686
 19.800 806
 19.820 942
 19.840 1128
 19.860 1361
 19.880 1544
 19.900 1857
 19.920 2088
 19.940 2152
 19.960 2323
 19.980 2352
 20.000 2304
 20.020 2371
 20.040 2361
 20.060 2480
 20.080 2470
 20.100 2361
 20.120 2381
 20.140 2371
 20.160 2246
 20.180 2116
 20.200 2106
 20.220 2025
 20.240 1953
 20.260 1689
 20.280 1544
 20.300 1239
 20.320 967
 20.340 696
 20.360 538
 20.380 416
 20.400 342
 20.420 268
 20.440 237
 20.460 222
 20.480 210
 20.500 204
 20.520 198
 20.540 182
 20.560 174
 20.580 176
 20.600 222
 20.620 225
 20.640 184
 20.660 184
 20.680 198
 20.700 201
 20.720 207
 20.740 213
 20.760 234
 20.780 231
 20.800 231
 20.820 256
 20.840 262
 20.860 282
 20.880 316
 20.900 338
 20.920 388
 20.940 449
 20.960 529
 20.980 585
 21.000 707
 21.020 882
 21.040 1075
 21.060 1281
 21.080 1600
 21.100 1755
 21.120 1980
 21.140 2162
 21.160 2143
 21.180 2106
 21.200 1944
 21.220 1600
 21.240 1260
 21.260 942
 21.280 635
 21.300 412
 21.320 345
 21.340 282
 21.360 237
 21.380 198
 21.400 190
 21.420 201
 21.440 184
 21.460 204
 21.480 182
 21.500 153
 21.520 182
 21.540 148
 21.560 179
 21.580 193
 21.600 174
 21.620 190
 21.640 179
 21.660 198
 21.680 190
 21.700 210
 21.720 222
 21.740 222
 21.760 259
 21.780 302
 21.800 320
 21.820 302
 21.840 320
 21.860 349
 21.880 316
 21.900 275
 21.920 282
 21.940 278
 21.960 285
 21.980 282
 22.000 302
 22.020 320
 22.040 320
 22.060 372
 22.080 368
 22.100 492
 22.120 576
 22.140 681
 22.160 745
 22.180 864
 22.200 912
 22.220 888
 22.240 870
 22.260 772
 22.280 595
 22.300 488
 22.320 384
 22.340 342
 22.360 292
 22.380 282
 22.400 262
 22.420 342
 22.440 331
 22.460 349
 22.480 380
 22.500 432
 22.520 368
 22.540 404
 22.560 416
 22.580 432
 22.600 408
 22.620 420
 22.640 404
 22.660 462
 22.680 475
 22.700 515
 22.720 515
 22.740 620
 22.760 640
 22.780 691
 22.800 660
 22.820 686
 22.840 734
 22.860 823
 22.880 900
 22.900 1056
 22.920 1218
 22.940 1406
 22.960 1568
 22.980 1672
 23.000 1840
 23.020 1953
 23.040 1989
 23.060 2088
 23.080 2237
 23.100 2440
 23.120 2662
 23.140 2851
 23.160 2798
 23.180 2735
 23.200 2672
 23.220 2480
 23.240 2190
 23.260 1764
 23.280 1383
 23.300 1004
 23.320 750
 23.340 556
 23.360 441
 23.380 388
 23.400 364
 23.420 320
 23.440 342
 23.460 345
 23.480 372
 23.500 364
 23.520 400
 23.540 380
 23.560 338
 23.580 353
 23.600 299
 23.620 309
 23.640 285
 23.660 306
 23.680 327
 23.700 349
 23.720 424
 23.740 436
 23.760 492
 23.780 561
 23.800 580
 23.820 645
 23.840 635
 23.860 650
 23.880 625
 23.900 547
 23.920 479
 23.940 408
 23.960 388
 23.980 372
 24.000 299
 24.020 299
 24.040 309
 24.060 313
 24.080 368
 24.100 388
 24.120 441
 24.140 529
 24.160 645
 24.180 712
 24.200 918
 24.220 1036
 24.240 1361
 24.260 1616
 24.280 1900
 24.300 2323
 24.320 2540
 24.340 2601
 24.360 2641
 24.380 2490
 24.400 2410
 24.420 2190
 24.440 2190
 24.460 1927
 24.480 1747
 24.500 1608
 24.520 1332
 24.540 1089
 24.560 918
 24.580 772
 24.600 795
 24.620 739
 24.640 707
 24.660 645
 24.680 600
 24.700 510
 24.720 408
 24.740 388
 24.760 349
 24.780 345
 24.800 309
 24.820 275
 24.840 259
 24.860 292
 24.880 246
 24.900 237
 24.920 256
 24.940 231
 24.960 243
 24.980 231
 25.000 252
 25.020 292
 25.040 275
 25.060 313
 25.080 306
 25.100 357
 25.120 400
 25.140 436
 25.160 396
 25.180 420
 25.200 436
 25.220 408
 25.240 372
 25.260 412
 25.280 400
 25.300 357
 25.320 299
 25.340 299
 25.360 262
 25.380 262
 25.400 272
 25.420 262
 25.440 278
 25.460 313
 25.480 299
 25.500 295
 25.520 338
 25.540 292
 25.560 289
 25.580 295
 25.600 295
 25.620 262
 25.640 249
 25.660 237
 25.680 225
 25.700 222
 25.720 237
 25.740 275
 25.760 243
 25.780 299
 25.800 292
 25.820 292
 25.840 327
 25.860 368
 25.880 400
 25.900 436
 25.920 547
 25.940 556
 25.960 610
 25.980 686
 26.000 712
 26.020 729
 26.040 729
 26.060 702
 26.080 696
 26.100 750
 26.120 835
 26.140 948
 26.160 1004
 26.180 1190
 26.200 1681
 26.220 2007
 26.240 2381
 26.260 3091
 26.280 3856
 26.300 4369
 26.320 5041
 26.340 5595
 26.360 5882
 26.380 5959
 26.400 5836
 26.420 5791
 26.440 5416
 26.460 5155
 26.480 4802
 26.500 4369
 26.520 3696
 26.540 3306
 26.560 2926
 26.580 2745
 26.600 2611
 26.620 2420
 26.640 2401
 26.660 2237
 26.680 2061
 26.700 1713
 26.720 1369
 26.740 1102
 26.760 846
 26.780 670
 26.800 547
 26.820 510
 26.840 453
 26.860 416
 26.880 416
 26.900 428
 26.920 400
 26.940 349
 26.960 349
 26.980 349
 27.000 306
 27.020 306
 27.040 306
 27.060 275
 27.080 292
 27.100 275
 27.120 313
 27.140 331
 27.160 368
 27.180 400
 27.200 479
 27.220 510
 27.240 610
 27.260 660
 27.280 767
 27.300 846
 27.320 864
 27.340 870
 27.360 858
 27.380 739
 27.400 718
 27.420 640
 27.440 650
 27.460 650
 27.480 702
 27.500 750
 27.520 876
 27.540 961
 27.560 1049
 27.580 1246
 27.600 1324
 27.620 1260
 27.640 1190
 27.660 1082
 27.680 912
 27.700 784
 27.720 696
 27.740 650
 27.760 595
 27.780 571
 27.800 556
 27.820 566
 27.840 542
 27.860 524
 27.880 488
 27.900 484
 27.920 453
 27.940 445
 27.960 428
 27.980 436
 28.000 380
 28.020 342
 28.040 324
 28.060 299
 28.080 228
 28.100 219
 28.120 243
 28.140 222
 28.160 187
 28.180 193
 28.200 190
 28.220 184
 28.240 187
 28.260 201
 28.280 193
 28.300 198
 28.320 222
 28.340 219
 28.360 228
 28.380 252
 28.400 225
 28.420 246
 28.440 262
 28.460 246
 28.480 216
 28.500 234
 28.520 213
 28.540 210
 28.560 210
 28.580 190
 28.600 210
 28.620 204
 28.640 166
 28.660 216
 28.680 231
 28.700 207
 28.720 207
 28.740 198
 28.760 210
 28.780 243
 28.800 213
 28.820 201
 28.840 246
 28.860 285
 28.880 252
 28.900 272
 28.920 372
 28.940 338
 28.960 376
 28.980 388
 29.000 466
 29.020 449
 29.040 424
 29.060 388
 29.080 324
 29.100 306
 29.120 289
 29.140 219
 29.160 231
 29.180 196
 29.200 210
 29.220 201
 29.240 182
 29.260 204
 29.280 193
 29.300 182
 29.320 219
 29.340 204
 29.360 225
 29.380 234
 29.400 256
 29.420 256
 29.440 309
 29.460 338
 29.480 320
 29.500 436
 29.520 488
 29.540 510
 29.560 660
 29.580 784
 29.600 973
 29.620 1162
 29.640 1324
 29.660 1544
 29.680 1640
 29.700 1789
 29.720 1772
 29.740 1849
 29.760 1866
 29.780 1730
 29.800 1528
 29.820 1361
 29.840 1211
 29.860 985
 29.880 806
 29.900 691
 29.920 620
 29.940 529
 29.960 492
 29.980 510
 30.000 466
 30.020 462
 30.040 416
 30.060 479
 30.080 404
 30.100 388
 30.120 342
 30.140 302
 30.160 234
 30.180 228
 30.200 207
 30.220 216
 30.240 174
 30.260 176
 30.280 207
 30.300 210
 30.320 179
 30.340 193
 30.360 176
 30.380 193
 30.400 187
 30.420 187
 30.440 190
 30.460 219
 30.480 225
 30.500 240
 30.520 259
 30.540 278
 30.560 313
 30.580 327
 30.600 342
 30.620 309
 30.640 309
 30.660 299
 30.680 262
 30.700 228
 30.720 262
 30.740 259
 30.760 278
 30.780 316
 30.800 309
 30.820 388
 30.840 412
 30.860 475
 30.880 556
 30.900 595
 30.920 630
 30.940 660
 30.960 767
 30.980 739
 31.000 712
 31.020 707
 31.040 600
 31.060 552
 31.080 484
 31.100 416
 31.120 338
 31.140 262
 31.160 228
 31.180 187
 31.200 176
 31.220 193
 31.240 174
 31.260 153
 31.280 163
 31.300 163
 31.320 158
 31.340 158
 31.360 201
 31.380 169
 31.400 198
 31.420 174
 31.440 182
 31.460 179
 31.480 201
 31.500 196
 31.520 222
 31.540 275
 31.560 228
 31.580 275
 31.600 285
 31.620 289
 31.640 302
 31.660 285
 31.680 302
 31.700 278
 31.720 278
 31.740 228
 31.760 237
 31.780 196
 31.800 201
 31.820 216
 31.840 196
 31.860 213
 31.880 252
 31.900 243
 31.920 272
 31.940 262
 31.960 309
 31.980 313
 32.000 324
 32.020 361
 32.040 309
 32.060 309
 32.080 246
 32.100 234
 32.120 249
 32.140 213
 32.160 187
 32.180 182
 32.200 184
 32.220 151
 32.240 176
 32.260 156
 32.280 148
 32.300 171
 32.320 182
 32.340 196
 32.360 161
 32.380 171
 32.400 190
 32.420 201
 32.440 196
 32.460 171
 32.480 198
 32.500 163
 32.520 174
 32.540 179
 32.560 187
 32.580 163
 32.600 161
 32.620 166
 32.640 153
 32.660 169
 32.680 156
 32.700 163
 32.720 163
 32.740 153
 32.760 158
 32.780 141
 32.800 158
 32.820 169
 32.840 156
 32.860 179
 32.880 179
 32.900 148
 32.920 156
 32.940 156
 32.960 158
 32.980 146
 33.000 166
 33.020 193
 33.040 174
 33.060 187
 33.080 210
 33.100 204
 33.120 228
 33.140 262
 33.160 289
 33.180 289
 33.200 313
 33.220 357
 33.240 331
 33.260 302
 33.280 320
 33.300 282
 33.320 249
 33.340 237
 33.360 265
 33.380 256
 33.400 237
 33.420 225
 33.440 259
 33.460 289
 33.480 268
 33.500 282
 33.520 285
 33.540 295
 33.560 313
 33.580 324
 33.600 289
 33.620 313
 33.640 334
 33.660 306
 33.680 295
 33.700 292
 33.720 324
 33.740 299
 33.760 309
 33.780 324
 33.800 282
 33.820 237
 33.840 249
 33.860 231
 33.880 231
 33.900 210
 33.920 193
 33.940 204
 33.960 174
 33.980 201
 34.000 198
 34.020 198
 34.040 231
 34.060 196
 34.080 207
 34.100 187
 34.120 231
 34.140 216
 34.160 228
 34.180 265
 34.200 262
 34.220 331
 34.240 316
 34.260 357
 34.280 349
 34.300 372
 34.320 361
 34.340 388
 34.360 364
 34.380 353
 34.400 320
 34.420 345
 34.440 275
 34.460 292
 34.480 285
 34.500 249
 34.520 231
 34.540 187
 34.560 225
 34.580 222
 34.600 222
 34.620 201
 34.640 196
 34.660 216
 34.680 219
 34.700 228
 34.720 190
 34.740 187
 34.760 169
 34.780 182
 34.800 174
 34.820 156
 34.840 169
 34.860 184
 34.880 161
 34.900 174
 34.920 169
 34.940 207
 34.960 204
 34.980 196
 35.000 190
 35.020 240
 35.040 243
 35.060 252
 35.080 240
 35.100 278
 35.120 252
 35.140 289
 35.160 268
 35.180 210
 35.200 225
 35.220 249
 35.240 240
 35.260 196
 35.280 249
 35.300 246
 35.320 256
 35.340 246
 35.360 282
 35.380 282
 35.400 313
 35.420 349
 35.440 327
 35.460 342
 35.480 324
 35.500 345
 35.520 278
 35.540 275
 35.560 282
 35.580 265
 35.600 256
 35.620 249
 35.640 231
 35.660 259
 35.680 231
 35.700 289
 35.720 256
 35.740 246
 35.760 246
 35.780 249
 35.800 278
 35.820 278
 35.840 292
 35.860 306
 35.880 306
 35.900 316
 35.920 345
 35.940 324
 35.960 338
 35.980 361
 36.000 331
 36.020 289
 36.040 316
 36.060 249
 36.080 256
 36.100 231
 36.120 222
 36.140 190
 36.160 179
 36.180 156
 36.200 161
 36.220 158
 36.240 144
 36.260 163
 36.280 156
 36.300 144
 36.320 156
 36.340 161
 36.360 184
 36.380 151
 36.400 163
 36.420 174
 36.440 196
 36.460 210
 36.480 222
 36.500 240
 36.520 268
 36.540 299
 36.560 349
 36.580 396
 36.600 400
 36.620 428
 36.640 424
 36.660 380
 36.680 361
 36.700 338
 36.720 295
 36.740 306
 36.760 262
 36.780 256
 36.800 228
 36.820 210
 36.840 222
 36.860 210
 36.880 222
 36.900 201
 36.920 231
 36.940 231
 36.960 243
 36.980 237
 37.000 262
 37.020 237
 37.040 187
 37.060 190
 37.080 187
 37.100 174
 37.120 156
 37.140 163
 37.160 146
 37.180 141
 37.200 161
 37.220 148
 37.240 144
 37.260 156
 37.280 151
 37.300 148
 37.320 156
 37.340 182
 37.360 151
 37.380 161
 37.400 174
 37.420 176
 37.440 193
 37.460 182
 37.480 198
 37.500 216
 37.520 216
 37.540 219
 37.560 210
 37.580 249
 37.600 213
 37.620 228
 37.640 210
 37.660 225
 37.680 182
 37.700 190
 37.720 166
 37.740 187
 37.760 182
 37.780 163
 37.800 169
 37.820 163
 37.840 171
 37.860 169
 37.880 182
 37.900 174
 37.920 182
 37.940 151
 37.960 187
 37.980 158
 38.000 190
 38.020 193
 38.040 213
 38.060 216
 38.080 222
 38.100 222
 38.120 268
 38.140 262
 38.160 240
 38.180 249
 38.200 268
 38.220 285
 38.240 306
 38.260 299
 38.280 282
 38.300 309
 38.320 265
 38.340 275
 38.360 272
 38.380 262
 38.400 249
 38.420 237
 38.440 240
 38.460 240
 38.480 259
 38.500 272
 38.520 268
 38.540 275
 38.560 306
 38.580 324
 38.600 364
 38.620 364
 38.640 349
 38.660 388
 38.680 368
 38.700 376
 38.720 388
 38.740 357
 38.760 388
 38.780 428
 38.800 445
 38.820 462
 38.840 400
 38.860 445
 38.880 384
 38.900 353
 38.920 349
 38.940 289
 38.960 320
 38.980 265
 39.000 252
 39.020 225
 39.040 228
 39.060 190
 39.080 187
 39.100 193
 39.120 207
 39.140 171
 39.160 182
 39.180 222
 39.200 201
 39.220 198
 39.240 198
 39.260 219
 39.280 219
 39.300 243
 39.320 222
 39.340 210
 39.360 216
 39.380 219
 39.400 198
 39.420 228
 39.440 240
 39.460 246
 39.480 252
 39.500 278
 39.520 295
 39.540 313
 39.560 299
 39.580 316
 39.600 342
 39.620 327
 39.640 313
 39.660 324
 39.680 265
 39.700 299
 39.720 302
 39.740 289
 39.760 285
 39.780 252
 39.800 252
 39.820 228
 39.840 225
 39.860 237
 39.880 240
 39.900 252
 39.920 237
 39.940 207
 39.960 234
 39.980 231
 40.000 219
 40.020 219
 40.040 225
 40.060 246
 40.080 213
 40.100 246
 40.120 285
 40.140 265
 40.160 309
 40.180 295
 40.200 306
 40.220 331
 40.240 292
 40.260 306
 40.280 306
 40.300 299
 40.320 275
 40.340 252
 40.360 256
 40.380 252
 40.400 216
 40.420 234
 40.440 249
 40.460 234
 40.480 262
 40.500 272
 40.520 292
 40.540 313
 40.560 334
 40.580 372
 40.600 396
 40.620 396
 40.640 453
 40.660 424
 40.680 368
 40.700 388
 40.720 364
 40.740 324
 40.760 320
 40.780 295
 40.800 285
 40.820 299
 40.840 272
 40.860 240
 40.880 201
 40.900 222
 40.920 213
 40.940 237
 40.960 228
 40.980 196
 41.000 196
 41.020 252
 41.040 198
 41.060 213
 41.080 219
 41.100 234
 41.120 213
 41.140 237
 41.160 228
 41.180 222
 41.200 190
 41.220 207
 41.240 174
 41.260 184
 41.280 171
 41.300 174
 41.320 169
 41.340 153
 41.360 156
 41.380 161
 41.400 179
 41.420 163
 41.440 184
 41.460 193
 41.480 174
 41.500 204
 41.520 190
 41.540 196
 41.560 179
 41.580 166
 41.600 187
 41.620 151
 41.640 161
 41.660 158
 41.680 163
 41.700 139
 41.720 156
 41.740 144
 41.760 169
 41.780 169
 41.800 169
 41.820 153
 41.840 163
 41.860 198
 41.880 174
 41.900 193
 41.920 196
 41.940 213
 41.960 184
 41.980 225
 42.000 201
 42.020 193
 42.040 187
 42.060 187
 42.080 184
 42.100 210
 42.120 222
 42.140 184
 42.160 187
 42.180 184
 42.200 184
 42.220 166
 42.240 187
 42.260 179
 42.280 184
 42.300 182
 42.320 176
 42.340 174
 42.360 179
 42.380 213
 42.400 187
 42.420 201
 42.440 182
 42.460 179
 42.480 216
 42.500 176
 42.520 201
 42.540 148
 42.560 201
 42.580 169
 42.600 174
 42.620 196
 42.640 184
 42.660 198
 42.680 187
 42.700 184
 42.720 179
 42.740 166
 42.760 174
 42.780 193
 42.800 231
 42.820 190
 42.840 169
 42.860 198
 42.880 196
 42.900 187
 42.920 213
 42.940 193
 42.960 201
 42.980 198
 43.000 198
 43.020 201
 43.040 210
 43.060 193
 43.080 213
 43.100 219
 43.120 193
 43.140 179
 43.160 193
 43.180 213
 43.200 182
 43.220 146
 43.240 184
 43.260 219
 43.280 169
 43.300 166
 43.320 169
 43.340 169
 43.360 210
 43.380 166
 43.400 187
 43.420 190
 43.440 210
 43.460 240
 43.480 204
 43.500 219
 43.520 268
 43.540 275
 43.560 289
 43.580 302
 43.600 289
 43.620 338
 43.640 342
 43.660 368
 43.680 400
 43.700 400
 43.720 388
 43.740 388
 43.760 345
 43.780 368
 43.800 372
 43.820 376
 43.840 380
 43.860 396
 43.880 384
 43.900 372
 43.920 349
 43.940 320
 43.960 313
 43.980 320
 44.000 331
 44.020 309
 44.040 353
 44.060 331
 44.080 338
 44.100 334
 44.120 289
 44.140 289
 44.160 338
 44.180 327
 44.200 334
 44.220 353
 44.240 353
 44.260 357
 44.280 364
 44.300 372
 44.320 380
 44.340 368
 44.360 353
 44.380 342
 44.400 295
 44.420 295
 44.440 265
 44.460 237
 44.480 225
 44.500 237
 44.520 201
 44.540 198
 44.560 198
 44.580 187
 44.600 201
 44.620 184
 44.640 179
 44.660 196
 44.680 193
 44.700 190
 44.720 210
 44.740 201
 44.760 187
 44.780 213
 44.800 201
 44.820 219
 44.840 204
 44.860 182
 44.880 216
 44.900 184
 44.920 201
 44.940 176
 44.960 179
 44.980 182
 45.000 179
 45.020 169
 45.040 166
 45.060 148
 45.080 163
 45.100 148
 45.120 169
 45.140 182
 45.160 163
 45.180 196
 45.200 158
 45.220 158
 45.240 213
 45.260 182
 45.280 216
 45.300 240
 45.320 201
 45.340 210
 45.360 252
 45.380 216
 45.400 207
 45.420 213
 45.440 196
 45.460 166
 45.480 176
 45.500 171
 45.520 158
 45.540 146
 45.560 136
 45.580 151
 45.600 132
 45.620 125
 45.640 166
 45.660 121
 45.680 134
 45.700 148
 45.720 158
 45.740 129
 45.760 166
 45.780 182
 45.800 163
 45.820 153
 45.840 139
 45.860 169
 45.880 144
 45.900 158
 45.920 151
 45.940 166
 45.960 163
 45.980 163
 46.000 179
 46.020 182
 46.040 166
 46.060 153
 46.080 163
 46.100 161
 46.120 148
 46.140 163
 46.160 182
 46.180 144
 46.200 148
 46.220 132
 46.240 182
 46.260 174
 46.280 182
 46.300 158
 46.320 171
 46.340 161
 46.360 174
 46.380 184
 46.400 204
 46.420 252
 46.440 231
 46.460 243
 46.480 234
 46.500 259
 46.520 213
 46.540 237
 46.560 228
 46.580 222
 46.600 207
 46.620 234
 46.640 210
 46.660 213
 46.680 179
 46.700 174
 46.720 210
 46.740 166
 46.760 182
 46.780 193
 46.800 210
 46.820 179
 46.840 219
 46.860 207
 46.880 243
 46.900 246
 46.920 262
 46.940 256
 46.960 265
 46.980 262
 47.000 240
 47.020 228
 47.040 237
 47.060 240
 47.080 249
 47.100 243
 47.120 265
 47.140 275
 47.160 275
 47.180 285
 47.200 289
 47.220 313
 47.240 342
 47.260 380
 47.280 412
 47.300 364
 47.320 361
 47.340 331
 47.360 338
 47.380 324
 47.400 282
 47.420 278
 47.440 259
 47.460 256
 47.480 249
 47.500 237
 47.520 210
 47.540 210
 47.560 207
 47.580 198
 47.600 196
 47.620 187
 47.640 169
 47.660 174
 47.680 207
 47.700 201
 47.720 176
 47.740 171
 47.760 190
 47.780 161
 47.800 204
 47.820 216
 47.840 225
 47.860 219
 47.880 225
 47.900 222
 47.920 249
 47.940 207
 47.960 249
 47.980 210
 48.000 243
 48.020 204
 48.040 190
 48.060 216
 48.080 198
 48.100 201
 48.120 174
 48.140 182
 48.160 187
 48.180 156
 48.200 148
 48.220 171
 48.240 158
 48.260 151
 48.280 161
 48.300 129
 48.320 132
 48.340 153
 48.360 121
 48.380 116
 48.400 161
 48.420 146
 48.440 123
 48.460 161
 48.480 151
 48.500 129
 48.520 121
 48.540 129
 48.560 141
 48.580 148
 48.600 129
 48.620 132
 48.640 153
 48.660 136
 48.680 114
 48.700 136
 48.720 134
 48.740 127
 48.760 148
 48.780 158
 48.800 151
 48.820 136
 48.840 148
 48.860 144
 48.880 151
 48.900 153
 48.920 169
 48.940 161
 48.960 163
 48.980 156
 49.000 156
 49.020 169
 49.040 136
 49.060 176
 49.080 176
 49.100 156
 49.120 163
 49.140 161
 49.160 163
 49.180 169
 49.200 139
 49.220 158
 49.240 163
 49.260 174
 49.280 161
 49.300 146
 49.320 163
 49.340 187
 49.360 163
 49.380 179
 49.400 196
 49.420 184
 49.440 169
 49.460 179
 49.480 174
 49.500 163
 49.520 151
 49.540 171
 49.560 213
 49.580 179
 49.600 201
 49.620 246
 49.640 219
 49.660 237
 49.680 278
 49.700 275
 49.720 282
 49.740 282
 49.760 309
 49.780 327
 49.800 285
 49.820 316
 49.840 313
 49.860 357
 49.880 368
 49.900 392
 49.920 349
 49.940 408
 49.960 364
 49.980 372
 50.000 324
 50.020 396
 50.040 357
 50.060 408
 50.080 327
 50.100 324
 50.120 302
 50.140 268
 50.160 285
 50.180 272
 50.200 228
 50.220 234
 50.240 243
 50.260 225
 50.280 225
 50.300 187
 50.320 196
 50.340 198
 50.360 213
 50.380 184
 50.400 182
 50.420 179
 50.440 158
 50.460 182
 50.480 174
 50.500 190
 50.520 174
 50.540 176
 50.560 184
 50.580 198
 50.600 193
 50.620 210
 50.640 187
 50.660 184
 50.680 216
 50.700 198
 50.720 237
 50.740 213
 50.760 243
 50.780 225
 50.800 207
 50.820 207
 50.840 256
 50.860 234
 50.880 243
 50.900 201
 50.920 237
 50.940 246
 50.960 222
 50.980 210
 51.000 219
 51.020 210
 51.040 228
 51.060 219
 51.080 219
 51.100 210
 51.120 213
 51.140 204
 51.160 198
 51.180 196
 51.200 198
 51.220 187
 51.240 193
 51.260 171
 51.280 163
 51.300 176
 51.320 163
 51.340 163
 51.360 182
 51.380 176
 51.400 163
 51.420 174
 51.440 179
 51.460 158
 51.480 146
 51.500 153
 51.520 184
 51.540 144
 51.560 174
 51.580 166
 51.600 151
 51.620 153
 51.640 158
 51.660 144
 51.680 187
 51.700 156
 51.720 141
 51.740 144
 51.760 176
 51.780 156
 51.800 144
 51.820 169
 51.840 182
 51.860 166
 51.880 171
 51.900 163
 51.920 179
 51.940 158
 51.960 184
 51.980 190
 52.000 153
 52.020 153
 52.040 182
 52.060 187
 52.080 201
 52.100 174
 52.120 161
 52.140 153
 52.160 151
 52.180 179
 52.200 163
 52.220 174
 52.240 144
 52.260 182
 52.280 156
 52.300 148
 52.320 148
 52.340 163
 52.360 158
 52.380 169
 52.400 176
 52.420 196
 52.440 169
 52.460 169
 52.480 169
 52.500 156
 52.520 184
 52.540 176
 52.560 182
 52.580 174
 52.600 169
 52.620 184
 52.640 207
 52.660 196
 52.680 193
 52.700 187
 52.720 179
 52.740 201
 52.760 201
 52.780 213
 52.800 176
 52.820 204
 52.840 222
 52.860 193
 52.880 184
 52.900 193
 52.920 174
 52.940 201
 52.960 184
 52.980 176
 53.000 196
 53.020 193
 53.040 184
 53.060 207
 53.080 222
 53.100 222
 53.120 216
 53.140 243
 53.160 176
 53.180 231
 53.200 234
 53.220 228
 53.240 210
 53.260 268
 53.280 278
 53.300 292
 53.320 268
 53.340 292
 53.360 285
 53.380 262
 53.400 249
 53.420 275
 53.440 234
 53.460 219
 53.480 210
 53.500 231
 53.520 225
 53.540 219
 53.560 219
 53.580 219
 53.600 207
 53.620 198
 53.640 193
 53.660 196
 53.680 228
 53.700 184
 53.720 196
 53.740 196
 53.760 201
 53.780 169
 53.800 174
 53.820 182
 53.840 193
 53.860 184
 53.880 201
 53.900 182
 53.920 190
 53.940 190
 53.960 176
 53.980 169
 54.000 176
 54.020 169
 54.040 182
 54.060 163
 54.080 166
 54.100 153
 54.120 153
 54.140 136
 54.160 144
 54.180 136
 54.200 148
 54.220 156
 54.240 156
 54.260 166
 54.280 169
 54.300 179
 54.320 163
 54.340 153
 54.360 163
 54.380 153
 54.400 158
 54.420 174
 54.440 161
 54.460 184
 54.480 169
 54.500 184
 54.520 190
 54.540 204
 54.560 174
 54.580 179
 54.600 158
 54.620 171
 54.640 158
 54.660 166
 54.680 171
 54.700 182
 54.720 171
 54.740 176
 54.760 174
 54.780 184
 54.800 184
 54.820 179
 54.840 198
 54.860 187
 54.880 169
 54.900 184
 54.920 174
 54.940 174
 54.960 187
 54.980 174
 55.000 171
 55.020 169
 55.040 182
 55.060 171
 55.080 158
 55.100 148
 55.120 163
 55.140 153
 55.160 148
 55.180 144
 55.200 144
 55.220 176
 55.240 132
 55.260 148
 55.280 166
 55.300 148
 55.320 161
 55.340 169
 55.360 144
 55.380 169
 55.400 123
 55.420 156
 55.440 156
 55.460 144
 55.480 171
 55.500 153
 55.520 144
 55.540 146
 55.560 169
 55.580 141
 55.600 144
 55.620 139
 55.640 153
 55.660 148
 55.680 136
 55.700 156
 55.720 146
 55.740 156
 55.760 148
 55.780 161
 55.800 141
 55.820 146
 55.840 144
 55.860 148
 55.880 153
 55.900 176
 55.920 158
 55.940 136
 55.960 141
 55.980 146
 56.000 156
 56.020 132
 56.040 139
 56.060 151
 56.080 184
 56.100 148
 56.120 161
 56.140 163
 56.160 171
 56.180 169
 56.200 158
 56.220 146
 56.240 153
 56.260 148
 56.280 163
 56.300 153
 56.320 153
 56.340 129
 56.360 148
 56.380 153
 56.400 121
 56.420 123
 56.440 144
 56.460 139
 56.480 156
 56.500 141
 56.520 141
 56.540 134
 56.560 123
 56.580 112
 56.600 144
 56.620 125
 56.640 146
 56.660 123
 56.680 114
 56.700 134
 56.720 118
 56.740 136
 56.760 139
 56.780 125
 56.800 144
 56.820 144
 56.840 127
 56.860 146
 56.880 151
 56.900 132
 56.920 148
 56.940 136
 56.960 136
 56.980 125
 57.000 139
 57.020 146
 57.040 127
 57.060 123
 57.080 156
 57.100 151
 57.120 144
 57.140 163
 57.160 132
 57.180 134
 57.200 151
 57.220 127
 57.240 132
 57.260 136
 57.280 129
 57.300 144
 57.320 141
 57.340 132
 57.360 134
 57.380 148
 57.400 161
 57.420 174
 57.440 176
 57.460 163
 57.480 182
 57.500 146
 57.520 151
 57.540 129
 57.560 174
 57.580 146
 57.600 156
 57.620 156
 57.640 139
 57.660 169
 57.680 169
 57.700 158
 57.720 169
 57.740 182
 57.760 176
 57.780 182
 57.800 174
 57.820 182
 57.840 163
 57.860 182
 57.880 196
 57.900 182
 57.920 171
 57.940 184
 57.960 163
 57.980 174
 58.000 161
 58.020 156
 58.040 166
 58.060 166
 58.080 146
 58.100 198
 58.120 139
 58.140 171
 58.160 161
 58.180 136
 58.200 134
 58.220 141
 58.240 139
 58.260 139
 58.280 169
 58.300 134
 58.320 144
 58.340 141
 58.360 139
 58.380 153
 58.400 121
 58.420 148
 58.440 144
 58.460 123
 58.480 106
 58.500 112
 58.520 125
 58.540 144
 58.560 141
 58.580 136
 58.600 121
 58.620 132
 58.640 144
 58.660 141
 58.680 116
 58.700 141
 58.720 144
 58.740 151
 58.760 127
 58.780 129
 58.800 144
 58.820 176
 58.840 158
 58.860 148
 58.880 176
 58.900 141
 58.920 174
 58.940 171
 58.960 182
 58.980 171
 59.000 169
 59.020 141
 59.040 156
 59.060 148
 59.080 158
 59.100 174
 59.120 136
 59.140 166
 59.160 148
 59.180 132
 59.200 161
 59.220 166
 59.240 174
 59.260 144
 59.280 144
 59.300 136
 59.320 158
 59.340 129
 59.360 148
 59.380 139
 59.400 144
 59.420 156
 59.440 174
 59.460 171
 59.480 171
 59.500 156
 59.520 144
 59.540 163
 59.560 163
 59.580 146
 59.600 171
 59.620 144
 59.640 148
 59.660 158
 59.680 171
 59.700 166
 59.720 146
 59.740 146
 59.760 125
 59.780 171
 59.800 146
 59.820 132
 59.840 146
 59.860 158
 59.880 158
 59.900 141
 59.920 174
 59.940 139
 59.960 156
 59.980 148
 60.000 136
 60.020 121
 60.040 136
 60.060 134
 60.080 148
 60.100 148
 60.120 129
 60.140 146
 60.160 121
 60.180 163
 60.200 153
 60.220 136
 60.240 148
 60.260 129
 60.280 144
 60.300 139
 60.320 141
 60.340 144
 60.360 146
 60.380 136
 60.400 136
 60.420 141
 60.440 129
 60.460 114
 60.480 116
 60.500 121
 60.520 127
 60.540 139
 60.560 139
 60.580 116
 60.600 125
 60.620 134
 60.640 129
 60.660 112
 60.680 134
 60.700 116
 60.720 100
 60.740 110
 60.760 114
 60.780 139
 60.800 114
 60.820 127
 60.840 125
 60.860 129
 60.880 129
 60.900 112
 60.920 151
 60.940 127
 60.960 123
 60.980 158
 61.000 141
 61.020 123
 61.040 129
 61.060 136
 61.080 146
 61.100 153
 61.120 132
 61.140 127
 61.160 127
 61.180 98
 61.200 118
 61.220 146
 61.240 110
 61.260 146
 61.280 125
 61.300 148
 61.320 125
 61.340 151
 61.360 121
 61.380 114
 61.400 136
 61.420 129
 61.440 118
 61.460 127
 61.480 136
 61.500 134
 61.520 129
 61.540 166
 61.560 156
 61.580 132
 61.600 151
 61.620 129
 61.640 129
 61.660 132
 61.680 151
 61.700 148
 61.720 169
 61.740 129
 61.760 163
 61.780 169
 61.800 132
 61.820 153
 61.840 141
 61.860 136
 61.880 166
 61.900 144
 61.920 139
 61.940 148
 61.960 153
 61.980 153
 62.000 148
 62.020 129
 62.040 136
 62.060 132
 62.080 123
 62.100 134
 62.120 127
 62.140 132
 62.160 118
 62.180 139
 62.200 121
 62.220 114
 62.240 139
 62.260 129
 62.280 129
 62.300 139
 62.320 148
 62.340 118
 62.360 132
 62.380 112
 62.400 106
 62.420 121
 62.440 141
 62.460 129
 62.480 136
 62.500 144
 62.520 144
 62.540 125
 62.560 134
 62.580 141
 62.600 134
 62.620 114
 62.640 161
 62.660 136
 62.680 125
 62.700 125
 62.720 112
 62.740 129
 62.760 132
 62.780 121
 62.800 153
 62.820 134
 62.840 114
 62.860 141
 62.880 139
 62.900 121
 62.920 121
 62.940 123
 62.960 123
 62.980 102
 63.000 132
 63.020 123
 63.040 118
 63.060 121
 63.080 121
 63.100 161
 63.120 127
 63.140 134
 63.160 132
 63.180 125
 63.200 118
 63.220 114
 63.240 118
 63.260 112
 63.280 132
 63.300 98
 63.320 106
 63.340 123
 63.360 125
 63.380 144
 63.400 127
 63.420 121
 63.440 125
 63.460 144
 63.480 118
 63.500 112
 63.520 116
 63.540 127
 63.560 116
 63.580 121
 63.600 116
 63.620 144
 63.640 121
 63.660 112
 63.680 136
 63.700 110
 63.720 121
 63.740 134
 63.760 121
 63.780 134
 63.800 144
 63.820 136
 63.840 148
 63.860 146
 63.880 118
 63.900 123
 63.920 112
 63.940 118
 63.960 134
 63.980 125
 64.000 121
 64.020 129
 64.040 148
 64.060 139
 64.080 146
 64.100 125
 64.120 134
 64.140 132
 64.160 136
 64.180 129
 64.200 112
 64.220 121
 64.240 102
 64.260 112
 64.280 127
 64.300 118
 64.320 129
 64.340 121
 64.360 125
 64.380 134
 64.400 125
 64.420 129
 64.440 118
 64.460 139
 64.480 129
 64.500 123
 64.520 106
 64.540 134
 64.560 118
 64.580 136
 64.600 108
 64.620 125
 64.640 127
 64.660 136
 64.680 148
 64.700 146
 64.720 132
 64.740 139
 64.760 151
 64.780 136
 64.800 129
 64.820 134
 64.840 158
 64.860 136
 64.880 125
 64.900 136
 64.920 136
 64.940 161
 64.960 129
 64.980 144
 65.000 136
 65.020 139
 65.040 148
 65.060 144
 65.080 136
 65.100 146
 65.120 125
 65.140 139
 65.160 127
 65.180 129
 65.200 136
 65.220 134
 65.240 136
 65.260 108
 65.280 123
 65.300 129
 65.320 121
 65.340 104
 65.360 116
 65.380 106
 65.400 123
 65.420 116
 65.440 121
 65.460 139
 65.480 139
 65.500 141
 65.520 132
 65.540 156
 65.560 114
 65.580 134
 65.600 121
 65.620 129
 65.640 148
 65.660 121
 65.680 116
 65.700 123
 65.720 132
 65.740 139
 65.760 193
 65.780 148
 65.800 174
 65.820 190
 65.840 171
 65.860 161
 65.880 156
 65.900 158
 65.920 148
 65.940 184
 65.960 158
 65.980 148
 66.000 148
 66.020 153
 66.040 151
 66.060 182
 66.080 174
 66.100 148
 66.120 136
 66.140 144
 66.160 158
 66.180 153
 66.200 153
 66.220 151
 66.240 146
 66.260 148
 66.280 144
 66.300 153
 66.320 129
 66.340 153
 66.360 156
 66.380 169
 66.400 158
 66.420 141
 66.440 151
 66.460 163
 66.480 134
 66.500 148
 66.520 136
 66.540 158
 66.560 132
 66.580 136
 66.600 136
 66.620 151
 66.640 158
 66.660 158
 66.680 151
 66.700 151
 66.720 146
 66.740 144
 66.760 118
 66.780 146
 66.800 136
 66.820 146
 66.840 139
 66.860 156
 66.880 129
 66.900 136
 66.920 127
 66.940 125
 66.960 118
 66.980 129
 67.000 134
 67.020 141
 67.040 127
 67.060 134
 67.080 129
 67.100 151
 67.120 112
 67.140 127
 67.160 108
 67.180 127
 67.200 141
 67.220 132
 67.240 102
 67.260 110
 67.280 116
 67.300 121
 67.320 112
 67.340 127
 67.360 116
 67.380 116
 67.400 118
 67.420 127
 67.440 132
 67.460 123
 67.480 110
 67.500 136
 67.520 100
 67.540 132
 67.560 110
 67.580 123
 67.600 129
 67.620 106
 67.640 132
 67.660 125
 67.680 127
 67.700 114
 67.720 114
 67.740 104
 67.760 121
 67.780 125
 67.800 125
 67.820 123
 67.840 110
 67.860 123
 67.880 114
 67.900 129
 67.920 129
 67.940 121
 67.960 125
 67.980 114
 68.000 129
 68.020 129
 68.040 127
 68.060 127
 68.080 129
 68.100 114
 68.120 125
 68.140 132
 68.160 112
 68.180 114
 68.200 144
 68.220 123
 68.240 129
 68.260 116
 68.280 121
 68.300 125
 68.320 125
 68.340 136
 68.360 114
 68.380 125
 68.400 104
 68.420 123
 68.440 146
 68.460 118
 68.480 123
 68.500 112
 68.520 139
 68.540 106
 68.560 112
 68.580 127
 68.600 121
 68.620 123
 68.640 121
 68.660 116
 68.680 110
 68.700 144
 68.720 136
 68.740 134
 68.760 127
 68.780 129
 68.800 134
 68.820 144
 68.840 139
 68.860 141
 68.880 114
 68.900 134
 68.920 129
 68.940 129
 68.960 136
 68.980 144
 69.000 129
 69.020 127
 69.040 116
 69.060 106
 69.080 129
 69.100 125
 69.120 121
 69.140 114
 69.160 151
 69.180 112
 69.200 132
 69.220 125
 69.240 125
 69.260 129
 69.280 129
 69.300 127
 69.320 134
 69.340 129
 69.360 134
 69.380 106
 69.400 127
 69.420 148
 69.440 146
 69.460 139
 69.480 132
 69.500 148
 69.520 136
 69.540 121
 69.560 144
 69.580 146
 69.600 134
 69.620 146
 69.640 123
 69.660 148
 69.680 146
 69.700 151
 69.720 151
 69.740 163
 69.760 144
 69.780 127
 69.800 144
 69.820 125
 69.840 129
 69.860 169
 69.880 148
 69.900 151
 69.920 153
 69.940 132
 69.960 144
 69.980 121
 70.000 136
 70.020 136
 70.040 127
 70.060 139
 70.080 129
 70.100 125
 70.120 129
 70.140 123
 70.160 106
 70.180 123
 70.200 121
 70.220 121
 70.240 104
 70.260 106
 70.280 108
 70.300 121
 70.320 110
 70.340 106
 70.360 129
 70.380 127
 70.400 116
 70.420 129
 70.440 110
 70.460 125
 70.480 132
 70.500 125
 70.520 114
 70.540 129
 70.560 110
 70.580 100
 70.600 112
 70.620 104
 70.640 132
 70.660 125
 70.680 100
 70.700 100
 70.720 106
 70.740 100
 70.760 129
 70.780 106
 70.800 102
 70.820 121
 70.840 96
 70.860 104
 70.880 121
 70.900 108
 70.920 100
 70.940 114
 70.960 98
 70.980 125
 71.000 110
 71.020 96
 71.040 121
 71.060 134
 71.080 114
 71.100 96
 71.120 110
 71.140 92
 71.160 112
 71.180 112
 71.200 132
 71.220 104
 71.240 114
 71.260 102
 71.280 104
 71.300 123
 71.320 100
 71.340 94
 71.360 118
 71.380 108
 71.400 104
 71.420 102
 71.440 114
 71.460 108
 71.480 92
 71.500 88
 71.520 112
 71.540 114
 71.560 88
 71.580 116
 71.600 96
 71.620 100
 71.640 100
 71.660 110
 71.680 102
 71.700 94
 71.720 106
 71.740 121
 71.760 108
 71.780 102
 71.800 125
 71.820 96
 71.840 98
 71.860 106
 71.880 125
 71.900 132
 71.920 125
 71.940 110
 71.960 121
 71.980 121
 72.000 108
 72.020 118
 72.040 110
 72.060 132
 72.080 100
 72.100 106
 72.120 148
 72.140 132
 72.160 121
 72.180 116
 72.200 110
 72.220 112
 72.240 129
 72.260 110
 72.280 123
 72.300 112
 72.320 118
 72.340 132
 72.360 134
 72.380 108
 72.400 139
 72.420 114
 72.440 121
 72.460 108
 72.480 123
 72.500 123
 72.520 116
 72.540 134
 72.560 129
 72.580 112
 72.600 116
 72.620 104
 72.640 102
 72.660 125
 72.680 110
 72.700 100
 72.720 123
 72.740 121
 72.760 125
 72.780 129
 72.800 136
 72.820 100
 72.840 129
 72.860 123
 72.880 104
 72.900 110
 72.920 127
 72.940 118
 72.960 114
 72.980 112
 73.000 123
 73.020 100
 73.040 94
 73.060 112
 73.080 98
 73.100 116
 73.120 123
 73.140 106
 73.160 129
 73.180 108
 73.200 102
 73.220 123
 73.240 125
 73.260 110
 73.280 132
 73.300 125
 73.320 125
 73.340 104
 73.360 125
 73.380 104
 73.400 112
 73.420 125
 73.440 125
 73.460 139
 73.480 106
 73.500 114
 73.520 121
 73.540 104
 73.560 110
 73.580 98
 73.600 104
 73.620 108
 73.640 121
 73.660 110
 73.680 98
 73.700 100
 73.720 94
 73.740 104
 73.760 104
 73.780 108
 73.800 90
 73.820 94
 73.840 88
 73.860 94
 73.880 94
 73.900 79
 73.920 112
 73.940 108
 73.960 98
 73.980 106
 74.000 132
 74.020 106
 74.040 108
 74.060 118
 74.080 108
 74.100 108
 74.120 114
 74.140 102
 74.160 114
 74.180 116
 74.200 102
 74.220 125
 74.240 114
 74.260 110
 74.280 116
 74.300 102
 74.320 116
 74.340 92
 74.360 92
 74.380 100
 74.400 112
 74.420 108
 74.440 116
 74.460 108
 74.480 125
 74.500 121
 74.520 94
 74.540 112
 74.560 86
 74.580 125
 74.600 98
 74.620 104
 74.640 110
 74.660 108
 74.680 114
 74.700 98
 74.720 110
 74.740 114
 74.760 108
 74.780 102
 74.800 121
 74.820 96
 74.840 123
 74.860 116
 74.880 106
 74.900 108
 74.920 112
 74.940 118
 74.960 118
 74.980 114
 75.000 108
 75.020 94
 75.040 112
 75.060 94
 75.080 116
 75.100 106
 75.120 121
 75.140 94
 75.160 110
 75.180 100
 75.200 86
 75.220 106
 75.240 108
 75.260 102
 75.280 100
 75.300 94
 75.320 114
 75.340 112
 75.360 98
 75.380 106
 75.400 104
 75.420 108
 75.440 112
 75.460 98
 75.480 127
 75.500 102
 75.520 108
 75.540 98
 75.560 98
 75.580 129
 75.600 116
 75.620 96
 75.640 104
 75.660 127
 75.680 110
 75.700 102
 75.720 104
 75.740 123
 75.760 112
 75.780 141
 75.800 102
 75.820 129
 75.840 104
 75.860 118
 75.880 118
 75.900 123
 75.920 129
 75.940 118
 75.960 132
 75.980 106
 76.000 108
 76.020 121
 76.040 121
 76.060 102
 76.080 118
 76.100 100
 76.120 114
 76.140 116
 76.160 102
 76.180 96
 76.200 114
 76.220 102
 76.240 129
 76.260 118
 76.280 125
 76.300 102
 76.320 100
 76.340 104
 76.360 118
 76.380 108
 76.400 116
 76.420 100
 76.440 112
 76.460 106
 76.480 106
 76.500 96
 76.520 104
 76.540 127
 76.560 123
 76.580 92
 76.600 121
 76.620 112
 76.640 100
 76.660 116
 76.680 100
 76.700 116
 76.720 118
 76.740 114
 76.760 118
 76.780 114
 76.800 129
 76.820 114
 76.840 121
 76.860 100
 76.880 125
 76.900 121
 76.920 123
 76.940 114
 76.960 94
 76.980 112
 77.000 98
 77.020 114
 77.040 104
 77.060 86
 77.080 114
 77.100 98
 77.120 112
 77.140 96
 77.160 106
 77.180 100
 77.200 106
 77.220 96
 77.240 96
 77.260 106
 77.280 100
 77.300 100
 77.320 121
 77.340 121
 77.360 94
 77.380 110
 77.400 96
 77.420 112
 77.440 96
 77.460 96
 77.480 116
 77.500 112
 77.520 86
 77.540 125
 77.560 98
 77.580 106
 77.600 102
 77.620 106
 77.640 100
 77.660 114
 77.680 90
 77.700 94
 77.720 98
 77.740 110
 77.760 94
 77.780 110
 77.800 92
 77.820 144
 77.840 90
 77.860 110
 77.880 104
 77.900 108
 77.920 110
 77.940 94
 77.960 98
 77.980 110
 78.000 114
 78.020 116
 78.040 102
 78.060 86
 78.080 118
 78.100 118
 78.120 108
 78.140 104
 78.160 104
 78.180 104
 78.200 106
 78.220 102
 78.240 104
 78.260 116
 78.280 100
 78.300 121
 78.320 98
 78.340 104
 78.360 121
 78.380 129
 78.400 121
 78.420 134
 78.440 114
 78.460 102
 78.480 132
 78.500 106
 78.520 96
 78.540 121
 78.560 116
 78.580 100
 78.600 112
 78.620 100
 78.640 112
 78.660 104
 78.680 102
 78.700 110
 78.720 121
 78.740 104
 78.760 108
 78.780 102
 78.800 108
 78.820 104
 78.840 102
 78.860 136
 78.880 84
 78.900 104
 78.920 116
 78.940 92
 78.960 110
 78.980 110
 79.000 112
 79.020 92
 79.040 108
 79.060 106
 79.080 123
 79.100 110
 79.120 98
 79.140 94
 79.160 108
 79.180 112
 79.200 114
 79.220 134
 79.240 121
 79.260 98
 79.280 110
 79.300 104
 79.320 98
 79.340 100
 79.360 92
 79.380 90
 79.400 106
 79.420 114
 79.440 114
 79.460 108
 79.480 102
 79.500 100
 79.520 98
 79.540 92
 79.560 106
 79.580 94
 79.600 96
 79.620 118
 79.640 121
 79.660 121
 79.680 102
 79.700 118
 79.720 104
 79.740 104
 79.760 88
 79.780 112
 79.800 82
 79.820 96
 79.840 125
 79.860 100
 79.880 100
 79.900 104
 79.920 96
 79.940 100
 79.960 125
 79.980 98
 80.000 110
 80.020 98
 80.040 102
 80.060 106
 80.080 102
 80.100 121
 80.120 127
 80.140 110
 80.160 100
 80.180 106
 80.200 86
 80.220 98
 80.240 94
 80.260 100
 80.280 102
 80.300 96
 80.320 114
 80.340 94
 80.360 114
 80.380 102
 80.400 86
 80.420 102
 80.440 116
 80.460 88
 80.480 104
 80.500 112
 80.520 84
 80.540 98
 80.560 84
 80.580 102
 80.600 81
 80.620 102
 80.640 100
 80.660 110
 80.680 102
 80.700 73
 80.720 92
 80.740 100
 80.760 88
 80.780 98
 80.800 81
 80.820 104
 80.840 108
 80.860 100
 80.880 100
 80.900 100
 80.920 104
 80.940 102
 80.960 125
 80.980 116
 81.000 102
 81.020 123
 81.040 139
 81.060 110
 81.080 102
 81.100 96
 81.120 102
 81.140 106
 81.160 102
 81.180 90
 81.200 100
 81.220 104
 81.240 123
 81.260 112
 81.280 94
 81.300 96
 81.320 94
 81.340 106
 81.360 112
 81.380 118
 81.400 106
 81.420 106
 81.440 114
 81.460 88
 81.480 102
 81.500 116
 81.520 121
 81.540 108
 81.560 118
 81.580 106
 81.600 110
 81.620 104
 81.640 114
 81.660 104
 81.680 104
 81.700 96
 81.720 108
 81.740 98
 81.760 121
 81.780 86
 81.800 110
 81.820 96
 81.840 70
 81.860 98
 81.880 102
 81.900 96
 81.920 106
 81.940 123
 81.960 110
 81.980 108
 82.000 100
 82.020 100
 82.040 110
 82.060 108
 82.080 94
 82.100 108
 82.120 106
 82.140 94
 82.160 100
 82.180 112
 82.200 90
 82.220 88
 82.240 106
 82.260 108
 82.280 108
 82.300 114
 82.320 100
 82.340 90
 82.360 110
 82.380 136
 82.400 121
 82.420 90
 82.440 121
 82.460 116
 82.480 104
 82.500 112
 82.520 108
 82.540 94
 82.560 84
 82.580 98
 82.600 90
 82.620 106
 82.640 100
 82.660 110
 82.680 108
 82.700 84
 82.720 106
 82.740 88
 82.760 90
 82.780 112
 82.800 104
 82.820 96
 82.840 106
 82.860 90
 82.880 92
 82.900 100
 82.920 90
 82.940 96
 82.960 104
 82.980 90
 83.000 86
 83.020 114
 83.040 88
 83.060 90
 83.080 110
 83.100 102
 83.120 88
 83.140 100
 83.160 106
 83.180 94
 83.200 90
 83.220 116
 83.240 116
 83.260 84
 83.280 94
 83.300 114
 83.320 86
 83.340 100
 83.360 98
 83.380 82
 83.400 94
 83.420 88
 83.440 90
 83.460 94
 83.480 102
 83.500 106
 83.520 100
 83.540 81
 83.560 114
 83.580 98
 83.600 84
 83.620 92
 83.640 92
 83.660 86
 83.680 79
 83.700 90
 83.720 104
 83.740 88
 83.760 77
 83.780 102
 83.800 96
 83.820 88
 83.840 108
 83.860 82
 83.880 104
 83.900 92
 83.920 90
 83.940 102
 83.960 75
 83.980 77
 84.000 110
 84.020 82
 84.040 98
 84.060 98
 84.080 96
 84.100 108
 84.120 88
 84.140 90
 84.160 82
 84.180 102
 84.200 96
 84.220 88
 84.240 94
 84.260 96
 84.280 94
 84.300 94
 84.320 88
 84.340 108
 84.360 106
 84.380 84
 84.400 96
 84.420 98
 84.440 98
 84.460 102
 84.480 86
 84.500 102
 84.520 98
 84.540 96
 84.560 82
 84.580 92
 84.600 90
 84.620 106
 84.640 118
 84.660 98
 84.680 94
 84.700 102
 84.720 102
 84.740 98
 84.760 106
 84.780 86
 84.800 92
 84.820 96
 84.840 100
 84.860 86
 84.880 86
 84.900 106
 84.920 102
 84.940 77
 84.960 96
 84.980 84
 85.000 96
 85.020 86
 85.040 86
 85.060 82
 85.080 79
 85.100 98
 85.120 90
 85.140 88
 85.160 98
 85.180 79
 85.200 82
 85.220 110
 85.240 90
 85.260 88
 85.280 86
 85.300 73
 85.320 94
 85.340 90
 85.360 94
 85.380 108
 85.400 90
 85.420 90
 85.440 81
 85.460 84
 85.480 84
 85.500 102
 85.520 84
 85.540 102
 85.560 81
 85.580 90
 85.600 86
 85.620 92
 85.640 84
 85.660 92
 85.680 92
 85.700 79
 85.720 92
 85.740 84
 85.760 86
 85.780 96
 85.800 100
 85.820 94
 85.840 100
 85.860 112
 85.880 100
 85.900 86
 85.920 79
 85.940 75
 85.960 88
 85.980 94
 86.000 86
 86.020 88
 86.040 98
 86.060 88
 86.080 100
 86.100 92
 86.120 94
 86.140 77
 86.160 112
 86.180 88
 86.200 84
 86.220 112
 86.240 88
 86.260 98
 86.280 96
 86.300 90
 86.320 81
 86.340 100
 86.360 96
 86.380 100
 86.400 88
 86.420 98
 86.440 82
 86.460 98
 86.480 94
 86.500 77
 86.520 86
 86.540 94
 86.560 86
 86.580 106
 86.600 86
 86.620 84
 86.640 96
 86.660 94
 86.680 84
 86.700 104
 86.720 108
 86.740 75
 86.760 72
 86.780 75
 86.800 100
 86.820 90
 86.840 82
 86.860 106
 86.880 92
 86.900 84
 86.920 90
 86.940 94
 86.960 79
 86.980 84
 87.000 100
 87.020 102
 87.040 92
 87.060 94
 87.080 86
 87.100 88
 87.120 88
 87.140 90
 87.160 102
 87.180 108
 87.200 90
 87.220 88
 87.240 90
 87.260 96
 87.280 90
 87.300 84
 87.320 77
 87.340 98
 87.360 100
 87.380 86
 87.400 96
 87.420 79
 87.440 84
 87.460 88
 87.480 94
 87.500 88
 87.520 86
 87.540 88
 87.560 77
 87.580 98
 87.600 88
 87.620 77
 87.640 92
 87.660 102
 87.680 92
 87.700 90
 87.720 98
 87.740 106
 87.760 79
 87.780 94
 87.800 84
 87.820 84
 87.840 70
 87.860 82
 87.880 104
 87.900 112
 87.920 100
 87.940 86
 87.960 94
 87.980 112
 88.000 90
 88.020 96
 88.040 88
 88.060 92
 88.080 92
 88.100 88
 88.120 90
 88.140 90
 88.160 96
 88.180 90
 88.200 82
 88.220 98
 88.240 110
 88.260 102
 88.280 112
 88.300 96
 88.320 82
 88.340 84
 88.360 88
 88.380 79
 88.400 79
 88.420 88
 88.440 88
 88.460 79
 88.480 94
 88.500 92
 88.520 92
 88.540 86
 88.560 86
 88.580 82
 88.600 77
 88.620 88
 88.640 94
 88.660 90
 88.680 73
 88.700 75
 88.720 70
 88.740 82
 88.760 84
 88.780 98
 88.800 94
 88.820 92
 88.840 90
 88.860 72
 88.880 86
 88.900 98
 88.920 72
 88.940 67
 88.960 104
 88.980 79
 89.000 86
 89.020 75
 89.040 82
 89.060 82
 89.080 94
 89.100 98
 89.120 110
 89.140 86
 89.160 96
 89.180 86
 89.200 84
 89.220 77
 89.240 75
 89.260 77
 89.280 72
 89.300 77
 89.320 84
 89.340 90
 89.360 86
 89.380 84
 89.400 81
 89.420 77
 89.440 84
 89.460 100
 89.480 86
 89.500 92
 89.520 102
 89.540 82
 89.560 72
 89.580 77
 89.600 96
 89.620 82
 89.640 88
 89.660 88
 89.680 86
 89.700 82
 89.720 79
 89.740 86
 89.760 84
 89.780 79
 89.800 82
 89.820 92
 89.840 79
 89.860 73
 89.880 94
 89.900 77
 89.920 70
 89.940 79
 89.960 88
 89.980 84
 90.000 72
 90.020 79
 90.040 84
 90.060 73
 90.080 96
 90.100 88
 90.120 88
 90.140 84
 90.160 82
 90.180 79
 90.200 77
 90.220 84
 90.240 82
 90.260 84
 90.280 77
 90.300 92
 90.320 88
 90.340 94
 90.360 77
 90.380 90
 90.400 90
 90.420 79
 90.440 62
 90.460 77
 90.480 82
 90.500 77
 90.520 77
 90.540 98
 90.560 84
 90.580 96
 90.600 79
 90.620 70
 90.640 82
 90.660 90
 90.680 88
 90.700 84
 90.720 82
 90.740 90
 90.760 73
 90.780 92
 90.800 108
 90.820 64
 90.840 82
 90.860 68
 90.880 100
 90.900 84
 90.920 82
 90.940 77
 90.960 82
 90.980 77
 91.000 88
 91.020 79
 91.040 90
 91.060 90
 91.080 94
 91.100 96
 91.120 77
 91.140 96
 91.160 98
 91.180 79
 91.200 98
 91.220 84
 91.240 79
 91.260 92
 91.280 92
 91.300 96
 91.320 94
 91.340 73
 91.360 86
 91.380 82
 91.400 75
 91.420 77
 91.440 79
 91.460 94
 91.480 88
 91.500 77
 91.520 82
 91.540 102
 91.560 79
 91.580 92
 91.600 86
 91.620 82
 91.640 67
 91.660 96
 91.680 81
 91.700 67
 91.720 77
 91.740 82
 91.760 102
 91.780 94
 91.800 82
 91.820 96
 91.840 73
 91.860 82
 91.880 94
 91.900 67
 91.920 102
 91.940 81
 91.960 86
 91.980 98
 92.000 92
 92.020 84
 92.040 90
 92.060 68
 92.080 79
 92.100 98
 92.120 72
 92.140 96
 92.160 70
 92.180 72
 92.200 75
 92.220 88
 92.240 70
 92.260 68
 92.280 84
 92.300 75
 92.320 79
 92.340 96
 92.360 68
 92.380 88
 92.400 84
 92.420 84
 92.440 88
 92.460 84
 92.480 88
 92.500 90
 92.520 67
 92.540 94
 92.560 92
 92.580 104
 92.600 92
 92.620 81
 92.640 77
 92.660 90
 92.680 79
 92.700 84
 92.720 82
 92.740 65
 92.760 92
 92.780 72
 92.800 84
 92.820 86
 92.840 88
 92.860 82
 92.880 86
 92.900 92
 92.920 64
 92.940 110
 92.960 82
 92.980 77
 93.000 84
 93.020 70
 93.040 84
 93.060 70
 93.080 77
 93.100 82
 93.120 88
 93.140 84
 93.160 84
 93.180 79
 93.200 92
 93.220 82
 93.240 88
 93.260 94
 93.280 79
 93.300 77
 93.320 90
 93.340 92
 93.360 86
 93.380 90
 93.400 79
 93.420 92
 93.440 79
 93.460 82
 93.480 72
 93.500 90
 93.520 98
 93.540 96
 93.560 75
 93.580 84
 93.600 92
 93.620 98
 93.640 84
 93.660 92
 93.680 88
 93.700 68
 93.720 98
 93.740 79
 93.760 77
 93.780 88
 93.800 77
 93.820 84
 93.840 79
 93.860 90
 93.880 73
 93.900 84
 93.920 65
 93.940 100
 93.960 75
 93.980 77
 94.000 92
 94.020 67
 94.040 90
 94.060 86
 94.080 108
 94.100 88
 94.120 82
 94.140 90
 94.160 82
 94.180 79
 94.200 75
 94.220 86
 94.240 106
 94.260 72
 94.280 94
 94.300 86
 94.320 70
 94.340 92
 94.360 70
 94.380 84
 94.400 98
 94.420 79
 94.440 92
 94.460 73
 94.480 96
 94.500 100
 94.520 90
 94.540 82
 94.560 84
 94.580 72
 94.600 59
 94.620 96
 94.640 75
 94.660 82
 94.680 106
 94.700 88
 94.720 84
 94.740 77
 94.760 72
 94.780 84
 94.800 65
 94.820 96
 94.840 82
 94.860 92
 94.880 79
 94.900 77
 94.920 82
 94.940 92
 94.960 56
 94.980 67
 95.000 79
 95.020 84
 95.040 90
 95.060 79
 95.080 75
 95.100 70
 95.120 88
 95.140 92
 95.160 82
 95.180 86
 95.200 77
 95.220 84
 95.240 70
 95.260 79
 95.280 70
 95.300 79
 95.320 86
 95.340 75
 95.360 90
 95.380 77
 95.400 82
 95.420 84
 95.440 70
 95.460 94
 95.480 82
 95.500 88
 95.520 62
 95.540 79
 95.560 92
 95.580 70
 95.600 65
 95.620 86
 95.640 92
 95.660 92
 95.680 75
 95.700 84
 95.720 70
 95.740 84
 95.760 88
 95.780 84
 95.800 86
 95.820 90
 95.840 81
 95.860 75
 95.880 77
 95.900 77
 95.920 88
 95.940 79
 95.960 75
 95.980 79
 96.000 79
 96.020 86
 96.040 94
 96.060 88
 96.080 72
 96.100 70
 96.120 75
 96.140 88
 96.160 68
 96.180 72
 96.200 79
 96.220 84
 96.240 81
 96.260 79
 96.280 72
 96.300 90
 96.320 79
 96.340 88
 96.360 79
 96.380 72
 96.400 86
 96.420 90
 96.440 79
 96.460 79
 96.480 84
 96.500 88
 96.520 90
 96.540 86
 96.560 84
 96.580 79
 96.600 92
 96.620 68
 96.640 81
 96.660 82
 96.680 70
 96.700 82
 96.720 79
 96.740 88
 96.760 79
 96.780 88
 96.800 77
 96.820 90
 96.840 79
 96.860 84
 96.880 82
 96.900 86
 96.920 75
 96.940 77
 96.960 90
 96.980 90
 97.000 77
 97.020 73
 97.040 82
 97.060 110
 97.080 84
 97.100 65
 97.120 70
 97.140 82
 97.160 79
 97.180 68
 97.200 77
 97.220 90
 97.240 88
 97.260 82
 97.280 82
 97.300 81
 97.320 102
 97.340 90
 97.360 82
 97.380 88
 97.400 82
 97.420 96
 97.440 79
 97.460 84
 97.480 92
 97.500 77
 97.520 75
 97.540 94
 97.560 86
 97.580 88
 97.600 88
 97.620 75
 97.640 73
 97.660 64
 97.680 82
 97.700 84
 97.720 90
 97.740 77
 97.760 86
 97.780 82
 97.800 75
 97.820 75
 97.840 94
 97.860 67
 97.880 77
 97.900 67
 97.920 86
 97.940 92
 97.960 77
 97.980 82
 98.000 75
 98.020 92
 98.040 84
 98.060 72
 98.080 82
 98.100 70
 98.120 73
 98.140 82
 98.160 77
 98.180 86
 98.200 75
 98.220 77
 98.240 92
 98.260 88
 98.280 60
 98.300 75
 98.320 82
 98.340 75
 98.360 121
 98.380 79
 98.400 79
 98.420 82
 98.440 73
 98.460 75
 98.480 82
 98.500 67
 98.520 77
 98.540 84
 98.560 81
 98.580 77
 98.600 94
 98.620 96
 98.640 86
 98.660 98
 98.680 75
 98.700 79
 98.720 96
 98.740 77
 98.760 90
 98.780 102
 98.800 79
 98.820 92
 98.840 92
 98.860 90
 98.880 94
 98.900 84
 98.920 98
 98.940 82
 98.960 81
 98.980 72
 99.000 79
 99.020 77
 99.040 70
 99.060 75
 99.080 72
 99.100 82
 99.120 104
 99.140 72
 99.160 57
 99.180 75
 99.200 68
 99.220 90
 99.240 77
 99.260 86
 99.280 67
 99.300 86
 99.320 90
 99.340 94
 99.360 75
 99.380 94
 99.400 94
 99.420 79
 99.440 72
 99.460 75
 99.480 90
 99.500 98
 99.520 79
 99.540 92
 99.560 75
 99.580 104
 99.600 79
 99.620 75
 99.640 90
 99.660 75
 99.680 88
 99.700 82
 99.720 81
 99.740 64
 99.760 75
 99.780 79
 99.800 84
 99.820 92
 99.840 79
 99.860 82
 99.880 79
 99.900 75
 99.920 72
 99.940 82
 99.960 86
 99.980 75
100.000 96
