  5.000 234
  5.020 234
  5.040 265
  5.060 249
  5.080 275
  5.100 246
  5.120 256
  5.140 256
  5.160 225
  5.180 216
  5.200 272
  5.220 246
  5.240 259
  5.260 268
  5.280 222
  5.300 246
  5.320 228
  5.340 240
  5.360 256
  5.380 252
  5.400 262
  5.420 228
  5.440 237
  5.460 225
  5.480 246
  5.500 231
  5.520 252
  5.540 246
  5.560 249
  5.580 228
  5.600 246
  5.620 228
  5.640 231
  5.660 219
  5.680 252
  5.700 249
  5.720 259
  5.740 275
  5.760 240
  5.780 213
  5.800 249
  5.820 225
  5.840 249
  5.860 240
  5.880 249
  5.900 240
  5.920 249
  5.940 265
  5.960 252
  5.980 246
  6.000 272
  6.020 249
  6.040 216
  6.060 231
  6.080 256
  6.100 246
  6.120 249
  6.140 237
  6.160 228
  6.180 256
  6.200 249
  6.220 313
  6.240 237
  6.260 262
  6.280 249
  6.300 256
  6.320 259
  6.340 246
  6.360 275
  6.380 272
  6.400 262
  6.420 282
  6.440 295
  6.460 313
  6.480 289
  6.500 285
  6.520 309
  6.540 313
  6.560 299
  6.580 338
  6.600 376
  6.620 334
  6.640 368
  6.660 372
  6.680 424
  6.700 436
  6.720 453
  6.740 462
  6.760 492
  6.780 529
  6.800 615
  6.820 696
  6.840 756
  6.860 846
  6.880 954
  6.900 1056
  6.920 1156
  6.940 1017
  6.960 930
  6.980 702
  7.000 519
  7.020 364
  7.040 361
  7.060 309
  7.080 372
  7.100 334
  7.120 416
  7.140 404
  7.160 420
  7.180 488
  7.200 515
  7.220 510
  7.240 547
  7.260 556
  7.280 533
  7.300 580
  7.320 635
  7.340 635
  7.360 739
  7.380 835
  7.400 829
  7.420 900
  7.440 1062
  7.460 1108
  7.480 1128
  7.500 1274
  7.520 1552
  7.540 1681
  7.560 1892
  7.580 2125
  7.600 2460
  7.620 3003
  7.640 3410
  7.660 3844
  7.680 4395
  7.700 5041
  7.720 5852
  7.740 6593
  7.760 7586
  7.780 9120
  7.800 10629
  7.820 12859
  7.840 15750
  7.860 19293
  7.880 23932
  7.900 30695
  7.920 41290
  7.940 60466
  7.960 84913
  7.980 99414
  8.000 94740
  8.020 76286
  8.040 47262
  8.060 19740
  8.080 6162
  8.100 2672
  8.120 1874
  8.140 1482
  8.160 1211
  8.180 1082
  8.200 985
  8.220 739
  8.240 681
  8.260 660
  8.280 576
  8.300 576
  8.320 691
  8.340 795
  8.360 723
  8.380 542
  8.400 475
  8.420 364
  8.440 306
  8.460 278
  8.480 306
  8.500 252
  8.520 265
  8.540 289
  8.560 256
  8.580 272
  8.600 252
  8.620 246
  8.640 246
  8.660 243
  8.680 249
  8.700 231
  8.720 246
  8.740 234
  8.760 252
  8.780 249
  8.800 243
  8.820 246
  8.840 252
  8.860 268
  8.880 246
  8.900 228
  8.920 231
  8.940 237
  8.960 240
  8.980 252
  9.000 246
  9.020 243
  9.040 256
  9.060 249
  9.080 259
  9.100 259
  9.120 262
  9.140 262
  9.160 246
  9.180 240
  9.200 249
  9.220 246
  9.240 249
  9.260 237
  9.280 262
  9.300 249
  9.320 249
  9.340 243
  9.360 275
  9.380 246
  9.400 231
  9.420 265
  9.440 275
  9.460 259
  9.480 272
  9.500 231
  9.520 240
  9.540 243
  9.560 228
  9.580 240
  9.600 268
  9.620 272
  9.640 268
  9.660 275
  9.680 289
  9.700 246
  9.720 282
  9.740 265
  9.760 262
  9.780 256
  9.800 292
  9.820 302
  9.840 265
  9.860 262
  9.880 292
  9.900 252
  9.920 285
  9.940 324
  9.960 295
  9.980 268
 10.000 295
 10.020 306
 10.040 282
 10.060 309
 10.080 306
 10.100 342
 10.120 313
 10.140 353
 10.160 368
 10.180 376
 10.200 420
 10.220 396
 10.240 432
 10.260 445
 10.280 457
 10.300 538
 10.320 640
 10.340 723
 10.360 756
 10.380 930
 10.400 1225
 10.420 1697
 10.440 2401
 10.460 3069
 10.480 3014
 10.500 2440
 10.520 1332
 10.540 729
 10.560 416
 10.580 376
 10.600 320
 10.620 313
 10.640 278
 10.660 324
 10.680 334
 10.700 302
 10.720 292
 10.740 306
 10.760 278
 10.780 302
 10.800 292
 10.820 268
 10.840 334
 10.860 306
 10.880 292
 10.900 292
 10.920 292
 10.940 309
 10.960 313
 10.980 327
 11.000 272
 11.020 299
 11.040 342
 11.060 295
 11.080 331
 11.100 309
 11.120 320
 11.140 331
 11.160 357
 11.180 400
 11.200 424
 11.220 364
 11.240 416
 11.260 376
 11.280 441
 11.300 392
 11.320 432
 11.340 457
 11.360 445
 11.380 524
 11.400 492
 11.420 515
 11.440 533
 11.460 635
 11.480 630
 11.500 620
 11.520 640
 11.540 576
 11.560 600
 11.580 615
 11.600 729
 11.620 888
 11.640 1149
 11.660 1354
 11.680 1267
 11.700 1056
 11.720 870
 11.740 665
 11.760 538
 11.780 445
 11.800 353
 11.820 368
 11.840 331
 11.860 357
 11.880 345
 11.900 345
 11.920 334
 11.940 353
 11.960 357
 11.980 372
 12.000 331
 12.020 338
 12.040 327
 12.060 361
 12.080 349
 12.100 313
 12.120 376
 12.140 345
 12.160 327
 12.180 361
 12.200 388
 12.220 349
 12.240 349
 12.260 353
 12.280 368
 12.300 353
 12.320 364
 12.340 376
 12.360 364
 12.380 372
 12.400 412
 12.420 388
 12.440 445
 12.460 384
 12.480 424
 12.500 376
 12.520 396
 12.540 404
 12.560 510
 12.580 453
 12.600 462
 12.620 470
 12.640 501
 12.660 547
 12.680 620
 12.700 645
 12.720 681
 12.740 696
 12.760 670
 12.780 610
 12.800 590
 12.820 547
 12.840 484
 12.860 441
 12.880 475
 12.900 470
 12.920 510
 12.940 492
 12.960 457
 12.980 519
 13.000 547
 13.020 580
 13.040 778
 13.060 817
 13.080 882
 13.100 979
 13.120 1024
 13.140 1030
 13.160 918
 13.180 841
 13.200 778
 13.220 595
 13.240 462
 13.260 441
 13.280 416
 13.300 428
 13.320 408
 13.340 388
 13.360 380
 13.380 376
 13.400 392
 13.420 412
 13.440 404
 13.460 416
 13.480 441
 13.500 380
 13.520 380
 13.540 392
 13.560 388
 13.580 420
 13.600 408
 13.620 436
 13.640 412
 13.660 416
 13.680 457
 13.700 428
 13.720 428
 13.740 449
 13.760 457
 13.780 484
 13.800 501
 13.820 501
 13.840 529
 13.860 556
 13.880 538
 13.900 524
 13.920 547
 13.940 506
 13.960 510
 13.980 538
 14.000 571
 14.020 556
 14.040 580
 14.060 595
 14.080 635
 14.100 702
 14.120 734
 14.140 823
 14.160 912
 14.180 992
 14.200 1056
 14.220 1183
 14.240 1274
 14.260 1544
 14.280 1755
 14.300 1927
 14.320 2152
 14.340 2500
 14.360 2672
 14.380 2704
 14.400 2662
 14.420 2756
 14.440 2662
 14.460 2641
 14.480 2580
 14.500 2520
 14.520 2460
 14.540 2420
 14.560 2693
 14.580 2894
 14.600 3025
 14.620 2724
 14.640 2460
 14.660 2171
 14.680 1632
 14.700 1421
 14.720 1253
 14.740 1095
 14.760 1004
 14.780 900
 14.800 712
 14.820 686
 14.840 665
 14.860 556
 14.880 552
 14.900 542
 14.920 519
 14.940 547
 14.960 542
 14.980 542
 15.000 475
 15.020 510
 15.040 497
 15.060 538
 15.080 561
 15.100 510
 15.120 600
 15.140 595
 15.160 571
 15.180 566
 15.200 600
 15.220 585
 15.240 605
 15.260 650
 15.280 686
 15.300 615
 15.320 676
 15.340 734
 15.360 718
 15.380 707
 15.400 712
 15.420 756
 15.440 734
 15.460 707
 15.480 729
 15.500 767
 15.520 772
 15.540 681
 15.560 655
 15.580 595
 15.600 590
 15.620 610
 15.640 630
 15.660 650
 15.680 756
 15.700 761
 15.720 772
 15.740 852
 15.760 936
 15.780 1024
 15.800 1197
 15.820 1354
 15.840 1398
 15.860 1640
 15.880 1927
 15.900 2256
 15.920 2641
 15.940 3588
 15.960 4719
 15.980 6272
 16.000 7022
 16.020 7208
 16.040 6512
 16.060 4719
 16.080 3147
 16.100 1953
 16.120 1324
 16.140 1108
 16.160 1043
 16.180 942
 16.200 930
 16.220 900
 16.240 750
 16.260 784
 16.280 691
 16.300 696
 16.320 707
 16.340 625
 16.360 660
 16.380 655
 16.400 645
 16.420 576
 16.440 595
 16.460 696
 16.480 691
 16.500 702
 16.520 718
 16.540 784
 16.560 761
 16.580 829
 16.600 876
 16.620 942
 16.640 1011
 16.660 1095
 16.680 1267
 16.700 1413
 16.720 1444
 16.740 1536
 16.760 1413
 16.780 1369
 16.800 1239
 16.820 1142
 16.840 1095
 16.860 973
 16.880 870
 16.900 864
 16.920 806
 16.940 723
 16.960 784
 16.980 784
 17.000 846
 17.020 829
 17.040 852
 17.060 817
 17.080 812
 17.100 767
 17.120 795
 17.140 696
 17.160 645
 17.180 676
 17.200 670
 17.220 615
 17.240 605
 17.260 600
 17.280 625
 17.300 600
 17.320 630
 17.340 620
 17.360 615
 17.380 615
 17.400 615
 17.420 635
 17.440 605
 17.460 681
 17.480 640
 17.500 681
 17.520 645
 17.540 615
 17.560 635
 17.580 707
 17.600 745
 17.620 729
 17.640 789
 17.660 858
 17.680 894
 17.700 924
 17.720 1082
 17.740 1204
 17.760 1218
 17.780 1383
 17.800 1497
 17.820 1513
 17.840 1616
 17.860 1664
 17.880 1528
 17.900 1513
 17.920 1190
 17.940 1095
 17.960 954
 17.980 888
 18.000 817
 18.020 806
 18.040 835
 18.060 745
 18.080 789
 18.100 789
 18.120 817
 18.140 789
 18.160 800
 18.180 772
 18.200 795
 18.220 767
 18.240 829
 18.260 772
 18.280 846
 18.300 864
 18.320 906
 18.340 823
 18.360 858
 18.380 888
 18.400 835
 18.420 841
 18.440 948
 18.460 1075
 18.480 1211
 18.500 1310
 18.520 1413
 18.540 1482
 18.560 1616
 18.580 1936
 18.600 2218
 18.620 2611
 18.640 3364
 18.660 3931
 18.680 4664
 18.700 5358
 18.720 6320
 18.740 6691
 18.760 6789
 18.780 6480
 18.800 5550
 18.820 4435
 18.840 3329
 18.860 2420
 18.880 1705
 18.900 1361
 18.920 1169
 18.940 1049
 18.960 1043
 18.980 1024
 19.000 1089
 19.020 1069
 19.040 1069
 19.060 998
 19.080 1135
 19.100 1108
 19.120 1239
 19.140 1211
 19.160 1190
 19.180 1049
 19.200 1089
 19.220 930
 19.240 967
 19.260 876
 19.280 918
 19.300 876
 19.320 985
 19.340 948
 19.360 1069
 19.380 1204
 19.400 1232
 19.420 1361
 19.440 1513
 19.460 1722
 19.480 1874
 19.500 1840
 19.520 2162
 19.540 2209
 19.560 2209
 19.580 2134
 19.600 1927
 19.620 1755
 19.640 1689
 19.660 1444
 19.680 1281
 19.700 1082
 19.720 985
 19.740 882
 19.760 930
 19.780 918
 19.800 954
 19.820 1030
 19.840 1049
 19.860 1043
 19.880 1156
 19.900 1239
 19.920 1317
 19.940 1361
 19.960 1361
 19.980 1310
 20.000 1288
 20.020 1303
 20.040 1232
 20.060 1253
 20.080 1288
 20.100 1332
 20.120 1376
 20.140 1451
 20.160 1421
 20.180 1428
 20.200 1459
 20.220 1528
 20.240 1513
 20.260 1584
 20.280 1592
 20.300 1505
 20.320 1608
 20.340 1664
 20.360 1849
 20.380 1806
 20.400 1755
 20.420 1789
 20.440 1697
 20.460 1576
 20.480 1346
 20.500 1197
 20.520 936
 20.540 835
 20.560 729
 20.580 734
 20.600 739
 20.620 712
 20.640 745
 20.660 823
 20.680 846
 20.700 882
 20.720 772
 20.740 800
 20.760 858
 20.780 912
 20.800 876
 20.820 1017
 20.840 1142
 20.860 1317
 20.880 1513
 20.900 1672
 20.920 1584
 20.940 1600
 20.960 1764
 20.980 1823
 21.000 1971
 21.020 2171
 21.040 2500
 21.060 2872
 21.080 2992
 21.100 3147
 21.120 3113
 21.140 2851
 21.160 2530
 21.180 2125
 21.200 1664
 21.220 1354
 21.240 1128
 21.260 961
 21.280 870
 21.300 767
 21.320 784
 21.340 723
 21.360 795
 21.380 739
 21.400 795
 21.420 835
 21.440 918
 21.460 900
 21.480 918
 21.500 985
 21.520 1049
 21.540 1128
 21.560 1149
 21.580 1162
 21.600 1204
 21.620 1239
 21.640 1162
 21.660 1102
 21.680 1156
 21.700 1142
 21.720 1095
 21.740 1004
 21.760 961
 21.780 918
 21.800 954
 21.820 864
 21.840 894
 21.860 900
 21.880 894
 21.900 888
 21.920 846
 21.940 858
 21.960 734
 21.980 789
 22.000 745
 22.020 846
 22.040 876
 22.060 858
 22.080 852
 22.100 817
 22.120 778
 22.140 778
 22.160 761
 22.180 734
 22.200 772
 22.220 729
 22.240 789
 22.260 767
 22.280 778
 22.300 686
 22.320 718
 22.340 660
 22.360 585
 22.380 615
 22.400 681
 22.420 630
 22.440 702
 22.460 702
 22.480 800
 22.500 745
 22.520 767
 22.540 723
 22.560 745
 22.580 739
 22.600 635
 22.620 670
 22.640 650
 22.660 707
 22.680 655
 22.700 681
 22.720 707
 22.740 723
 22.760 767
 22.780 778
 22.800 800
 22.820 858
 22.840 829
 22.860 846
 22.880 1043
 22.900 1043
 22.920 1128
 22.940 1211
 22.960 1176
 22.980 1281
 23.000 1296
 23.020 1361
 23.040 1444
 23.060 1369
 23.080 1406
 23.100 1497
 23.120 1600
 23.140 1772
 23.160 2070
 23.180 2171
 23.200 2470
 23.220 2830
 23.240 3091
 23.260 3340
 23.280 3672
 23.300 4238
 23.320 4830
 23.340 5836
 23.360 6889
 23.380 7482
 23.400 7259
 23.420 6448
 23.440 5461
 23.460 4212
 23.480 2992
 23.500 2125
 23.520 1600
 23.540 1225
 23.560 1128
 23.580 1043
 23.600 1049
 23.620 1017
 23.640 1049
 23.660 1128
 23.680 1122
 23.700 1246
 23.720 1197
 23.740 1169
 23.760 1149
 23.780 1030
 23.800 992
 23.820 998
 23.840 985
 23.860 973
 23.880 1043
 23.900 973
 23.920 1011
 23.940 1049
 23.960 1115
 23.980 1204
 24.000 1211
 24.020 1339
 24.040 1489
 24.060 1672
 24.080 1944
 24.100 2125
 24.120 2052
 24.140 2016
 24.160 1755
 24.180 1482
 24.200 1361
 24.220 1225
 24.240 1169
 24.260 1239
 24.280 1317
 24.300 1444
 24.320 1489
 24.340 1608
 24.360 1568
 24.380 1568
 24.400 1513
 24.420 1497
 24.440 1421
 24.460 1376
 24.480 1260
 24.500 1281
 24.520 1122
 24.540 1135
 24.560 1102
 24.580 1128
 24.600 1176
 24.620 1267
 24.640 1346
 24.660 1474
 24.680 1505
 24.700 1656
 24.720 1772
 24.740 1900
 24.760 1697
 24.780 1528
 24.800 1346
 24.820 1062
 24.840 961
 24.860 772
 24.880 650
 24.900 660
 24.920 590
 24.940 547
 24.960 585
 24.980 640
 25.000 600
 25.020 645
 25.040 665
 25.060 718
 25.080 772
 25.100 823
 25.120 852
 25.140 1075
 25.160 1544
 25.180 1648
 25.200 1505
 25.220 1544
 25.240 1281
 25.260 1043
 25.280 906
 25.300 750
 25.320 712
 25.340 625
 25.360 590
 25.380 529
 25.400 529
 25.420 457
 25.440 457
 25.460 479
 25.480 497
 25.500 475
 25.520 497
 25.540 506
 25.560 449
 25.580 529
 25.600 533
 25.620 547
 25.640 580
 25.660 660
 25.680 600
 25.700 665
 25.720 696
 25.740 761
 25.760 795
 25.780 864
 25.800 985
 25.820 1062
 25.840 1149
 25.860 1288
 25.880 1421
 25.900 1552
 25.920 1489
 25.940 1640
 25.960 1632
 25.980 1616
 26.000 1592
 26.020 1421
 26.040 1310
 26.060 1049
 26.080 954
 26.100 906
 26.120 789
 26.140 789
 26.160 778
 26.180 800
 26.200 858
 26.220 817
 26.240 942
 26.260 1030
 26.280 1115
 26.300 1128
 26.320 1260
 26.340 1391
 26.360 1521
 26.380 1552
 26.400 1568
 26.420 1568
 26.440 1489
 26.460 1459
 26.480 1521
 26.500 1521
 26.520 1505
 26.540 1391
 26.560 1332
 26.580 1253
 26.600 1232
 26.620 1260
 26.640 1246
 26.660 1156
 26.680 1062
 26.700 1036
 26.720 1036
 26.740 888
 26.760 812
 26.780 795
 26.800 729
 26.820 772
 26.840 784
 26.860 767
 26.880 823
 26.900 870
 26.920 888
 26.940 876
 26.960 912
 26.980 829
 27.000 835
 27.020 767
 27.040 734
 27.060 696
 27.080 547
 27.100 576
 27.120 576
 27.140 542
 27.160 547
 27.180 595
 27.200 506
 27.220 524
 27.240 630
 27.260 590
 27.280 620
 27.300 655
 27.320 686
 27.340 635
 27.360 630
 27.380 625
 27.400 655
 27.420 630
 27.440 681
 27.460 605
 27.480 610
 27.500 615
 27.520 676
 27.540 605
 27.560 625
 27.580 665
 27.600 702
 27.620 778
 27.640 734
 27.660 745
 27.680 686
 27.700 600
 27.720 645
 27.740 595
 27.760 580
 27.780 547
 27.800 533
 27.820 552
 27.840 605
 27.860 519
 27.880 519
 27.900 501
 27.920 571
 27.940 595
 27.960 538
 27.980 576
 28.000 556
 28.020 547
 28.040 605
 28.060 681
 28.080 676
 28.100 795
 28.120 795
 28.140 750
 28.160 778
 28.180 912
 28.200 846
 28.220 846
 28.240 906
 28.260 1017
 28.280 992
 28.300 1011
 28.320 1056
 28.340 979
 28.360 900
 28.380 823
 28.400 723
 28.420 676
 28.440 610
 28.460 580
 28.480 533
 28.500 501
 28.520 519
 28.540 506
 28.560 542
 28.580 510
 28.600 515
 28.620 556
 28.640 552
 28.660 561
 28.680 515
 28.700 492
 28.720 501
 28.740 441
 28.760 441
 28.780 424
 28.800 420
 28.820 449
 28.840 436
 28.860 420
 28.880 392
 28.900 432
 28.920 404
 28.940 453
 28.960 432
 28.980 466
 29.000 432
 29.020 441
 29.040 457
 29.060 479
 29.080 462
 29.100 484
 29.120 561
 29.140 561
 29.160 595
 29.180 625
 29.200 655
 29.220 660
 29.240 778
 29.260 846
 29.280 852
 29.300 1011
 29.320 1197
 29.340 1310
 29.360 1513
 29.380 1544
 29.400 1672
 29.420 1681
 29.440 1764
 29.460 1713
 29.480 1616
 29.500 1466
 29.520 1383
 29.540 1169
 29.560 1004
 29.580 864
 29.600 756
 29.620 702
 29.640 605
 29.660 635
 29.680 640
 29.700 655
 29.720 707
 29.740 702
 29.760 712
 29.780 729
 29.800 665
 29.820 686
 29.840 630
 29.860 625
 29.880 576
 29.900 580
 29.920 576
 29.940 556
 29.960 529
 29.980 585
 30.000 566
 30.020 585
 30.040 600
 30.060 625
 30.080 645
 30.100 610
 30.120 640
 30.140 645
 30.160 650
 30.180 640
 30.200 605
 30.220 566
 30.240 542
 30.260 510
 30.280 497
 30.300 453
 30.320 470
 30.340 457
 30.360 453
 30.380 457
 30.400 462
 30.420 470
 30.440 488
 30.460 462
 30.480 510
 30.500 533
 30.520 529
 30.540 561
 30.560 524
 30.580 561
 30.600 492
 30.620 552
 30.640 497
 30.660 484
 30.680 519
 30.700 479
 30.720 524
 30.740 552
 30.760 529
 30.780 533
 30.800 547
 30.820 547
 30.840 615
 30.860 620
 30.880 660
 30.900 676
 30.920 676
 30.940 778
 30.960 841
 30.980 882
 31.000 936
 31.020 961
 31.040 1036
 31.060 961
 31.080 846
 31.100 767
 31.120 772
 31.140 691
 31.160 610
 31.180 547
 31.200 524
 31.220 571
 31.240 542
 31.260 610
 31.280 615
 31.300 630
 31.320 605
 31.340 615
 31.360 566
 31.380 595
 31.400 620
 31.420 620
 31.440 556
 31.460 538
 31.480 585
 31.500 571
 31.520 610
 31.540 576
 31.560 600
 31.580 702
 31.600 707
 31.620 712
 31.640 772
 31.660 894
 31.680 948
 31.700 852
 31.720 985
 31.740 924
 31.760 900
 31.780 894
 31.800 900
 31.820 924
 31.840 852
 31.860 817
 31.880 936
 31.900 942
 31.920 1062
 31.940 1108
 31.960 1225
 31.980 1413
 32.000 1513
 32.020 1713
 32.040 1764
 32.060 1831
 32.080 2134
 32.100 2304
 32.120 2683
 32.140 3124
 32.160 3684
 32.180 4070
 32.200 4556
 32.220 5256
 32.240 6130
 32.260 8190
 32.280 10567
 32.300 13759
 32.320 15775
 32.340 16179
 32.360 15104
 32.380 13409
 32.400 10404
 32.420 8427
 32.440 6625
 32.460 4761
 32.480 2840
 32.500 1772
 32.520 1361
 32.540 1169
 32.560 1142
 32.580 1142
 32.600 1183
 32.620 1218
 32.640 1218
 32.660 1082
 32.680 1036
 32.700 924
 32.720 906
 32.740 756
 32.760 660
 32.780 585
 32.800 610
 32.820 585
 32.840 556
 32.860 552
 32.880 510
 32.900 571
 32.920 556
 32.940 595
 32.960 576
 32.980 580
 33.000 585
 33.020 625
 33.040 670
 33.060 702
 33.080 702
 33.100 795
 33.120 778
 33.140 846
 33.160 912
 33.180 876
 33.200 1108
 33.220 1122
 33.240 1204
 33.260 1332
 33.280 1361
 33.300 1451
 33.320 1505
 33.340 1592
 33.360 1600
 33.380 1552
 33.400 1576
 33.420 1552
 33.440 1592
 33.460 1705
 33.480 1989
 33.500 2171
 33.520 2162
 33.540 2304
 33.560 2294
 33.580 2275
 33.600 2134
 33.620 1857
 33.640 1608
 33.660 1324
 33.680 1176
 33.700 1017
 33.720 888
 33.740 789
 33.760 767
 33.780 691
 33.800 650
 33.820 696
 33.840 712
 33.860 665
 33.880 615
 33.900 610
 33.920 590
 33.940 615
 33.960 580
 33.980 529
 34.000 566
 34.020 515
 34.040 529
 34.060 497
 34.080 524
 34.100 501
 34.120 506
 34.140 552
 34.160 576
 34.180 645
 34.200 691
 34.220 670
 34.240 676
 34.260 660
 34.280 681
 34.300 696
 34.320 670
 34.340 650
 34.360 625
 34.380 571
 34.400 552
 34.420 571
 34.440 510
 34.460 506
 34.480 519
 34.500 506
 34.520 492
 34.540 449
 34.560 501
 34.580 492
 34.600 484
 34.620 466
 34.640 506
 34.660 510
 34.680 479
 34.700 515
 34.720 533
 34.740 533
 34.760 524
 34.780 566
 34.800 524
 34.820 529
 34.840 533
 34.860 561
 34.880 576
 34.900 552
 34.920 600
 34.940 571
 34.960 571
 34.980 625
 35.000 630
 35.020 566
 35.040 571
 35.060 556
 35.080 515
 35.100 547
 35.120 501
 35.140 479
 35.160 501
 35.180 519
 35.200 501
 35.220 538
 35.240 519
 35.260 479
 35.280 501
 35.300 552
 35.320 580
 35.340 576
 35.360 620
 35.380 625
 35.400 585
 35.420 600
 35.440 610
 35.460 615
 35.480 620
 35.500 630
 35.520 585
 35.540 605
 35.560 630
 35.580 576
 35.600 615
 35.620 610
 35.640 566
 35.660 556
 35.680 571
 35.700 610
 35.720 547
 35.740 645
 35.760 630
 35.780 681
 35.800 691
 35.820 745
 35.840 800
 35.860 852
 35.880 852
 35.900 912
 35.920 870
 35.940 882
 35.960 817
 35.980 829
 36.000 870
 36.020 812
 36.040 789
 36.060 723
 36.080 681
 36.100 718
 36.120 635
 36.140 650
 36.160 686
 36.180 723
 36.200 665
 36.220 566
 36.240 585
 36.260 556
 36.280 552
 36.300 547
 36.320 515
 36.340 470
 36.360 542
 36.380 479
 36.400 542
 36.420 556
 36.440 470
 36.460 484
 36.480 510
 36.500 510
 36.520 510
 36.540 515
 36.560 590
 36.580 620
 36.600 529
 36.620 590
 36.640 501
 36.660 533
 36.680 542
 36.700 552
 36.720 524
 36.740 538
 36.760 515
 36.780 501
 36.800 501
 36.820 510
 36.840 510
 36.860 561
 36.880 506
 36.900 533
 36.920 571
 36.940 556
 36.960 585
 36.980 561
 37.000 571
 37.020 561
 37.040 561
 37.060 590
 37.080 585
 37.100 590
 37.120 610
 37.140 660
 37.160 600
 37.180 655
 37.200 610
 37.220 635
 37.240 580
 37.260 610
 37.280 580
 37.300 610
 37.320 556
 37.340 566
 37.360 561
 37.380 501
 37.400 519
 37.420 475
 37.440 453
 37.460 470
 37.480 453
 37.500 466
 37.520 488
 37.540 453
 37.560 457
 37.580 484
 37.600 462
 37.620 449
 37.640 462
 37.660 466
 37.680 420
 37.700 484
 37.720 436
 37.740 457
 37.760 475
 37.780 420
 37.800 449
 37.820 432
 37.840 432
 37.860 432
 37.880 420
 37.900 457
 37.920 441
 37.940 428
 37.960 475
 37.980 524
 38.000 556
 38.020 580
 38.040 538
 38.060 538
 38.080 561
 38.100 590
 38.120 615
 38.140 610
 38.160 650
 38.180 660
 38.200 655
 38.220 756
 38.240 823
 38.260 900
 38.280 1017
 38.300 1102
 38.320 1075
 38.340 1075
 38.360 936
 38.380 967
 38.400 948
 38.420 973
 38.440 973
 38.460 924
 38.480 882
 38.500 864
 38.520 930
 38.540 1030
 38.560 1036
 38.580 1115
 38.600 1156
 38.620 1162
 38.640 1253
 38.660 1466
 38.680 1592
 38.700 1568
 38.720 1332
 38.740 1232
 38.760 1115
 38.780 1122
 38.800 1024
 38.820 852
 38.840 756
 38.860 681
 38.880 580
 38.900 538
 38.920 529
 38.940 519
 38.960 501
 38.980 396
 39.000 441
 39.020 436
 39.040 428
 39.060 416
 39.080 420
 39.100 428
 39.120 408
 39.140 392
 39.160 428
 39.180 441
 39.200 428
 39.220 462
 39.240 470
 39.260 441
 39.280 449
 39.300 501
 39.320 475
 39.340 501
 39.360 529
 39.380 561
 39.400 620
 39.420 552
 39.440 615
 39.460 576
 39.480 547
 39.500 600
 39.520 585
 39.540 566
 39.560 590
 39.580 533
 39.600 519
 39.620 580
 39.640 515
 39.660 542
 39.680 484
 39.700 542
 39.720 484
 39.740 533
 39.760 475
 39.780 484
 39.800 519
 39.820 576
 39.840 529
 39.860 566
 39.880 529
 39.900 571
 39.920 524
 39.940 595
 39.960 556
 39.980 533
 40.000 529
 40.020 488
 40.040 497
 40.060 538
 40.080 529
 40.100 462
 40.120 492
 40.140 529
 40.160 571
 40.180 576
 40.200 625
 40.220 576
 40.240 566
 40.260 571
 40.280 605
 40.300 556
 40.320 576
 40.340 585
 40.360 566
 40.380 635
 40.400 620
 40.420 691
 40.440 696
 40.460 723
 40.480 723
 40.500 761
 40.520 864
 40.540 930
 40.560 1036
 40.580 1056
 40.600 1156
 40.620 1288
 40.640 1376
 40.660 1592
 40.680 1936
 40.700 2381
 40.720 2766
 40.740 2798
 40.760 2570
 40.780 2209
 40.800 1900
 40.820 1713
 40.840 1681
 40.860 1391
 40.880 1239
 40.900 930
 40.920 707
 40.940 625
 40.960 566
 40.980 547
 41.000 519
 41.020 510
 41.040 561
 41.060 585
 41.080 696
 41.100 723
 41.120 660
 41.140 547
 41.160 600
 41.180 533
 41.200 615
 41.220 576
 41.240 466
 41.260 457
 41.280 453
 41.300 441
 41.320 396
 41.340 424
 41.360 408
 41.380 462
 41.400 404
 41.420 404
 41.440 380
 41.460 441
 41.480 475
 41.500 420
 41.520 420
 41.540 441
 41.560 436
 41.580 432
 41.600 449
 41.620 475
 41.640 492
 41.660 492
 41.680 497
 41.700 470
 41.720 466
 41.740 506
 41.760 484
 41.780 462
 41.800 484
 41.820 519
 41.840 524
 41.860 466
 41.880 445
 41.900 420
 41.920 453
 41.940 424
 41.960 453
 41.980 412
 42.000 416
 42.020 420
 42.040 432
 42.060 420
 42.080 412
 42.100 432
 42.120 449
 42.140 424
 42.160 400
 42.180 392
 42.200 364
 42.220 364
 42.240 372
 42.260 424
 42.280 396
 42.300 392
 42.320 368
 42.340 372
 42.360 324
 42.380 396
 42.400 364
 42.420 376
 42.440 384
 42.460 364
 42.480 353
 42.500 342
 42.520 353
 42.540 368
 42.560 368
 42.580 368
 42.600 376
 42.620 364
 42.640 376
 42.660 380
 42.680 384
 42.700 416
 42.720 436
 42.740 432
 42.760 436
 42.780 445
 42.800 484
 42.820 453
 42.840 484
 42.860 484
 42.880 445
 42.900 441
 42.920 453
 42.940 445
 42.960 428
 42.980 420
 43.000 416
 43.020 420
 43.040 388
 43.060 404
 43.080 368
 43.100 396
 43.120 432
 43.140 432
 43.160 428
 43.180 400
 43.200 449
 43.220 412
 43.240 470
 43.260 457
 43.280 449
 43.300 484
 43.320 453
 43.340 484
 43.360 462
 43.380 492
 43.400 475
 43.420 470
 43.440 462
 43.460 441
 43.480 484
 43.500 404
 43.520 492
 43.540 441
 43.560 488
 43.580 492
 43.600 457
 43.620 501
 43.640 600
 43.660 615
 43.680 712
 43.700 640
 43.720 660
 43.740 595
 43.760 600
 43.780 650
 43.800 723
 43.820 686
 43.840 681
 43.860 723
 43.880 778
 43.900 870
 43.920 979
 43.940 1183
 43.960 1310
 43.980 1354
 44.000 1232
 44.020 1169
 44.040 1102
 44.060 1239
 44.080 1354
 44.100 1232
 44.120 1135
 44.140 998
 44.160 841
 44.180 756
 44.200 778
 44.220 718
 44.240 605
 44.260 590
 44.280 524
 44.300 457
 44.320 457
 44.340 420
 44.360 408
 44.380 412
 44.400 457
 44.420 388
 44.440 376
 44.460 384
 44.480 353
 44.500 361
 44.520 368
 44.540 361
 44.560 349
 44.580 364
 44.600 342
 44.620 388
 44.640 338
 44.660 353
 44.680 392
 44.700 345
 44.720 396
 44.740 392
 44.760 380
 44.780 372
 44.800 416
 44.820 368
 44.840 364
 44.860 349
 44.880 396
 44.900 345
 44.920 361
 44.940 349
 44.960 349
 44.980 345
 45.000 331
 45.020 342
 45.040 349
 45.060 364
 45.080 353
 45.100 376
 45.120 400
 45.140 412
 45.160 349
 45.180 376
 45.200 384
 45.220 380
 45.240 376
 45.260 331
 45.280 357
 45.300 353
 45.320 361
 45.340 361
 45.360 349
 45.380 353
 45.400 357
 45.420 357
 45.440 384
 45.460 392
 45.480 384
 45.500 404
 45.520 408
 45.540 445
 45.560 479
 45.580 408
 45.600 424
 45.620 380
 45.640 388
 45.660 416
 45.680 380
 45.700 368
 45.720 384
 45.740 342
 45.760 357
 45.780 380
 45.800 372
 45.820 384
 45.840 353
 45.860 384
 45.880 376
 45.900 357
 45.920 388
 45.940 376
 45.960 428
 45.980 424
 46.000 368
 46.020 338
 46.040 353
 46.060 353
 46.080 349
 46.100 342
 46.120 368
 46.140 324
 46.160 309
 46.180 324
 46.200 306
 46.220 361
 46.240 345
 46.260 334
 46.280 376
 46.300 368
 46.320 388
 46.340 412
 46.360 404
 46.380 416
 46.400 412
 46.420 412
 46.440 388
 46.460 384
 46.480 404
 46.500 353
 46.520 388
 46.540 384
 46.560 327
 46.580 349
 46.600 349
 46.620 353
 46.640 361
 46.660 357
 46.680 331
 46.700 364
 46.720 342
 46.740 364
 46.760 372
 46.780 380
 46.800 361
 46.820 404
 46.840 388
 46.860 412
 46.880 408
 46.900 392
 46.920 392
 46.940 436
 46.960 436
 46.980 457
 47.000 488
 47.020 519
 47.040 533
 47.060 519
 47.080 479
 47.100 475
 47.120 556
 47.140 529
 47.160 561
 47.180 524
 47.200 556
 47.220 497
 47.240 492
 47.260 488
 47.280 445
 47.300 462
 47.320 436
 47.340 420
 47.360 400
 47.380 376
 47.400 376
 47.420 392
 47.440 364
 47.460 404
 47.480 392
 47.500 449
 47.520 466
 47.540 400
 47.560 432
 47.580 388
 47.600 400
 47.620 428
 47.640 449
 47.660 470
 47.680 445
 47.700 470
 47.720 506
 47.740 492
 47.760 449
 47.780 484
 47.800 475
 47.820 524
 47.840 492
 47.860 547
 47.880 497
 47.900 449
 47.920 432
 47.940 408
 47.960 380
 47.980 388
 48.000 420
 48.020 404
 48.040 408
 48.060 357
 48.080 338
 48.100 361
 48.120 380
 48.140 364
 48.160 364
 48.180 331
 48.200 338
 48.220 334
 48.240 342
 48.260 327
 48.280 320
 48.300 331
 48.320 320
 48.340 361
 48.360 302
 48.380 306
 48.400 313
 48.420 299
 48.440 342
 48.460 327
 48.480 324
 48.500 327
 48.520 331
 48.540 342
 48.560 357
 48.580 345
 48.600 349
 48.620 342
 48.640 320
 48.660 316
 48.680 342
 48.700 331
 48.720 299
 48.740 313
 48.760 309
 48.780 316
 48.800 327
 48.820 334
 48.840 349
 48.860 372
 48.880 368
 48.900 376
 48.920 361
 48.940 313
 48.960 324
 48.980 342
 49.000 353
 49.020 331
 49.040 331
 49.060 357
 49.080 342
 49.100 342
 49.120 345
 49.140 368
 49.160 353
 49.180 361
 49.200 353
 49.220 353
 49.240 338
 49.260 357
 49.280 372
 49.300 388
 49.320 449
 49.340 424
 49.360 470
 49.380 457
 49.400 449
 49.420 420
 49.440 396
 49.460 404
 49.480 384
 49.500 357
 49.520 353
 49.540 327
 49.560 345
 49.580 357
 49.600 299
 49.620 331
 49.640 320
 49.660 338
 49.680 349
 49.700 331
 49.720 324
 49.740 345
 49.760 327
 49.780 342
 49.800 364
 49.820 361
 49.840 388
 49.860 400
 49.880 372
 49.900 388
 49.920 396
 49.940 420
 49.960 376
 49.980 408
 50.000 388
 50.020 345
 50.040 364
 50.060 361
 50.080 357
 50.100 364
 50.120 353
 50.140 372
 50.160 357
 50.180 338
 50.200 349
 50.220 361
 50.240 372
 50.260 353
 50.280 396
 50.300 361
 50.320 376
 50.340 338
 50.360 353
 50.380 368
 50.400 368
 50.420 384
 50.440 345
 50.460 364
 50.480 302
 50.500 338
 50.520 353
 50.540 320
 50.560 320
 50.580 364
 50.600 349
 50.620 285
 50.640 306
 50.660 361
 50.680 331
 50.700 361
 50.720 376
 50.740 376
 50.760 396
 50.780 368
 50.800 345
 50.820 320
 50.840 324
 50.860 306
 50.880 338
 50.900 342
 50.920 334
 50.940 331
 50.960 309
 50.980 299
 51.000 295
 51.020 302
 51.040 313
 51.060 331
 51.080 278
 51.100 313
 51.120 302
 51.140 334
 51.160 327
 51.180 349
 51.200 353
 51.220 302
 51.240 299
 51.260 292
 51.280 299
 51.300 292
 51.320 289
 51.340 292
 51.360 285
 51.380 268
 51.400 289
 51.420 282
 51.440 292
 51.460 292
 51.480 292
 51.500 262
 51.520 272
 51.540 299
 51.560 285
 51.580 275
 51.600 259
 51.620 299
 51.640 282
 51.660 295
 51.680 259
 51.700 231
 51.720 289
 51.740 285
 51.760 292
 51.780 262
 51.800 295
 51.820 306
 51.840 302
 51.860 313
 51.880 324
 51.900 292
 51.920 334
 51.940 306
 51.960 313
 51.980 331
 52.000 368
 52.020 404
 52.040 420
 52.060 404
 52.080 357
 52.100 345
 52.120 316
 52.140 324
 52.160 349
 52.180 361
 52.200 349
 52.220 313
 52.240 313
 52.260 282
 52.280 299
 52.300 256
 52.320 306
 52.340 256
 52.360 302
 52.380 285
 52.400 306
 52.420 285
 52.440 306
 52.460 331
 52.480 306
 52.500 292
 52.520 313
 52.540 334
 52.560 306
 52.580 327
 52.600 324
 52.620 313
 52.640 327
 52.660 306
 52.680 345
 52.700 320
 52.720 357
 52.740 338
 52.760 338
 52.780 368
 52.800 353
 52.820 376
 52.840 368
 52.860 338
 52.880 392
 52.900 380
 52.920 376
 52.940 396
 52.960 388
 52.980 364
 53.000 345
 53.020 331
 53.040 313
 53.060 334
 53.080 324
 53.100 324
 53.120 320
 53.140 313
 53.160 327
 53.180 299
 53.200 316
 53.220 299
 53.240 285
 53.260 302
 53.280 327
 53.300 289
 53.320 320
 53.340 299
 53.360 313
 53.380 345
 53.400 289
 53.420 331
 53.440 292
 53.460 299
 53.480 289
 53.500 302
 53.520 295
 53.540 289
 53.560 299
 53.580 306
 53.600 306
 53.620 353
 53.640 306
 53.660 327
 53.680 324
 53.700 334
 53.720 306
 53.740 334
 53.760 408
 53.780 432
 53.800 501
 53.820 492
 53.840 436
 53.860 428
 53.880 388
 53.900 416
 53.920 396
 53.940 428
 53.960 424
 53.980 449
 54.000 428
 54.020 488
 54.040 529
 54.060 630
 54.080 542
 54.100 488
 54.120 412
 54.140 376
 54.160 364
 54.180 441
 54.200 416
 54.220 384
 54.240 357
 54.260 376
 54.280 324
 54.300 275
 54.320 324
 54.340 262
 54.360 306
 54.380 309
 54.400 309
 54.420 299
 54.440 320
 54.460 324
 54.480 306
 54.500 384
 54.520 388
 54.540 408
 54.560 412
 54.580 368
 54.600 408
 54.620 380
 54.640 412
 54.660 392
 54.680 384
 54.700 353
 54.720 404
 54.740 400
 54.760 376
 54.780 331
 54.800 353
 54.820 342
 54.840 316
 54.860 331
 54.880 324
 54.900 338
 54.920 302
 54.940 313
 54.960 302
 54.980 327
 55.000 324
 55.020 295
 55.040 306
 55.060 306
 55.080 309
 55.100 299
 55.120 285
 55.140 295
 55.160 268
 55.180 268
 55.200 278
 55.220 289
 55.240 275
 55.260 275
 55.280 268
 55.300 289
 55.320 246
 55.340 278
 55.360 272
 55.380 272
 55.400 246
 55.420 302
 55.440 268
 55.460 252
 55.480 278
 55.500 249
 55.520 278
 55.540 275
 55.560 285
 55.580 275
 55.600 275
 55.620 259
 55.640 268
 55.660 265
 55.680 252
 55.700 243
 55.720 275
 55.740 262
 55.760 282
 55.780 252
 55.800 265
 55.820 256
 55.840 256
 55.860 240
 55.880 265
 55.900 259
 55.920 268
 55.940 246
 55.960 275
 55.980 268
 56.000 275
 56.020 302
 56.040 268
 56.060 256
 56.080 259
 56.100 265
 56.120 265
 56.140 252
 56.160 289
 56.180 268
 56.200 259
 56.220 313
 56.240 285
 56.260 285
 56.280 309
 56.300 295
 56.320 282
 56.340 309
 56.360 306
 56.380 306
 56.400 256
 56.420 295
 56.440 299
 56.460 282
 56.480 289
 56.500 275
 56.520 265
 56.540 285
 56.560 240
 56.580 275
 56.600 249
 56.620 285
 56.640 259
 56.660 237
 56.680 234
 56.700 256
 56.720 256
 56.740 275
 56.760 259
 56.780 262
 56.800 275
 56.820 243
 56.840 262
 56.860 285
 56.880 275
 56.900 246
 56.920 285
 56.940 282
 56.960 282
 56.980 240
 57.000 278
 57.020 299
 57.040 259
 57.060 302
 57.080 285
 57.100 249
 57.120 306
 57.140 309
 57.160 268
 57.180 272
 57.200 289
 57.220 262
 57.240 234
 57.260 282
 57.280 262
 57.300 268
 57.320 256
 57.340 275
 57.360 285
 57.380 265
 57.400 246
 57.420 237
 57.440 243
 57.460 231
 57.480 246
 57.500 249
 57.520 225
 57.540 193
 57.560 237
 57.580 237
 57.600 228
 57.620 219
 57.640 196
 57.660 210
 57.680 228
 57.700 237
 57.720 196
 57.740 201
 57.760 222
 57.780 219
 57.800 231
 57.820 237
 57.840 240
 57.860 246
 57.880 216
 57.900 240
 57.920 240
 57.940 231
 57.960 259
 57.980 289
 58.000 249
 58.020 243
 58.040 234
 58.060 268
 58.080 265
 58.100 243
 58.120 282
 58.140 256
 58.160 256
 58.180 252
 58.200 275
 58.220 309
 58.240 268
 58.260 282
 58.280 302
 58.300 316
 58.320 361
 58.340 327
 58.360 313
 58.380 275
 58.400 289
 58.420 295
 58.440 268
 58.460 268
 58.480 299
 58.500 278
 58.520 285
 58.540 262
 58.560 278
 58.580 240
 58.600 237
 58.620 256
 58.640 246
 58.660 259
 58.680 240
 58.700 222
 58.720 243
 58.740 246
 58.760 262
 58.780 262
 58.800 240
 58.820 225
 58.840 228
 58.860 228
 58.880 246
 58.900 243
 58.920 262
 58.940 237
 58.960 222
 58.980 243
 59.000 259
 59.020 246
 59.040 252
 59.060 216
 59.080 249
 59.100 234
 59.120 228
 59.140 272
 59.160 259
 59.180 228
 59.200 234
 59.220 237
 59.240 259
 59.260 240
 59.280 265
 59.300 275
 59.320 292
 59.340 265
 59.360 289
 59.380 292
 59.400 249
 59.420 302
 59.440 268
 59.460 265
 59.480 272
 59.500 256
 59.520 249
 59.540 240
 59.560 249
 59.580 225
 59.600 228
 59.620 219
 59.640 237
 59.660 231
 59.680 234
 59.700 222
 59.720 228
 59.740 222
 59.760 213
 59.780 246
 59.800 234
 59.820 237
 59.840 213
 59.860 213
 59.880 219
 59.900 231
 59.920 219
 59.940 231
 59.960 198
 59.980 193
 60.000 243
 60.020 198
 60.040 201
 60.060 231
 60.080 193
 60.100 193
 60.120 207
 60.140 210
 60.160 201
 60.180 231
 60.200 243
 60.220 207
 60.240 216
 60.260 196
 60.280 196
 60.300 210
 60.320 219
 60.340 228
 60.360 216
 60.380 225
 60.400 219
 60.420 225
 60.440 228
 60.460 231
 60.480 219
 60.500 228
 60.520 210
 60.540 213
 60.560 231
 60.580 249
 60.600 249
 60.620 240
 60.640 240
 60.660 243
 60.680 231
 60.700 231
 60.720 234
 60.740 207
 60.760 237
 60.780 243
 60.800 246
 60.820 252
 60.840 259
 60.860 234
 60.880 249
 60.900 259
 60.920 225
 60.940 259
 60.960 265
 60.980 259
 61.000 228
 61.020 265
 61.040 268
 61.060 237
 61.080 262
 61.100 265
 61.120 306
 61.140 259
 61.160 278
 61.180 289
 61.200 299
 61.220 289
 61.240 285
 61.260 289
 61.280 272
 61.300 256
 61.320 272
 61.340 306
 61.360 292
 61.380 289
 61.400 275
 61.420 306
 61.440 289
 61.460 309
 61.480 262
 61.500 327
 61.520 316
 61.540 306
 61.560 282
 61.580 275
 61.600 262
 61.620 252
 61.640 225
 61.660 262
 61.680 243
 61.700 237
 61.720 234
 61.740 231
 61.760 225
 61.780 193
 61.800 213
 61.820 225
 61.840 196
 61.860 222
 61.880 207
 61.900 204
 61.920 249
 61.940 198
 61.960 225
 61.980 225
 62.000 213
 62.020 210
 62.040 222
 62.060 219
 62.080 187
 62.100 234
 62.120 204
 62.140 207
 62.160 210
 62.180 222
 62.200 204
 62.220 231
 62.240 240
 62.260 228
 62.280 207
 62.300 231
 62.320 256
 62.340 201
 62.360 213
 62.380 240
 62.400 228
 62.420 228
 62.440 231
 62.460 219
 62.480 196
 62.500 228
 62.520 198
 62.540 234
 62.560 219
 62.580 225
 62.600 196
 62.620 231
 62.640 231
 62.660 240
 62.680 222
 62.700 222
 62.720 216
 62.740 225
 62.760 228
 62.780 213
 62.800 246
 62.820 201
 62.840 213
 62.860 213
 62.880 240
 62.900 219
 62.920 246
 62.940 222
 62.960 190
 62.980 210
 63.000 216
 63.020 210
 63.040 193
 63.060 216
 63.080 210
 63.100 210
 63.120 207
 63.140 190
 63.160 193
 63.180 237
 63.200 216
 63.220 216
 63.240 198
 63.260 190
 63.280 243
 63.300 210
 63.320 207
 63.340 228
 63.360 222
 63.380 222
 63.400 207
 63.420 216
 63.440 207
 63.460 256
 63.480 265
 63.500 262
 63.520 313
 63.540 299
 63.560 327
 63.580 306
 63.600 306
 63.620 272
 63.640 275
 63.660 262
 63.680 240
 63.700 259
 63.720 246
 63.740 302
 63.760 282
 63.780 259
 63.800 225
 63.820 216
 63.840 246
 63.860 240
 63.880 249
 63.900 237
 63.920 222
 63.940 225
 63.960 231
 63.980 237
 64.000 210
 64.020 216
 64.040 256
 64.060 262
 64.080 237
 64.100 219
 64.120 234
 64.140 234
 64.160 219
 64.180 240
 64.200 193
 64.220 231
 64.240 249
 64.260 213
 64.280 210
 64.300 216
 64.320 207
 64.340 207
 64.360 246
 64.380 201
 64.400 216
 64.420 222
 64.440 216
 64.460 237
 64.480 225
 64.500 201
 64.520 198
 64.540 204
 64.560 222
 64.580 228
 64.600 219
 64.620 228
 64.640 210
 64.660 201
 64.680 222
 64.700 207
 64.720 201
 64.740 216
 64.760 187
 64.780 231
 64.800 216
 64.820 204
 64.840 210
 64.860 198
 64.880 231
 64.900 204
 64.920 243
 64.940 222
 64.960 210
 64.980 252
 65.000 228
 65.020 231
 65.040 252
 65.060 207
 65.080 219
 65.100 222
 65.120 225
 65.140 219
 65.160 240
 65.180 201
 65.200 213
 65.220 231
 65.240 231
 65.260 231
 65.280 228
 65.300 228
 65.320 249
 65.340 246
 65.360 246
 65.380 262
 65.400 292
 65.420 228
 65.440 259
 65.460 278
 65.480 285
 65.500 231
 65.520 228
 65.540 225
 65.560 240
 65.580 246
 65.600 256
 65.620 285
 65.640 292
 65.660 285
 65.680 262
 65.700 240
 65.720 292
 65.740 246
 65.760 243
 65.780 252
 65.800 243
 65.820 295
 65.840 265
 65.860 259
 65.880 249
 65.900 246
 65.920 249
 65.940 259
 65.960 262
 65.980 262
 66.000 256
 66.020 256
 66.040 246
 66.060 256
 66.080 256
 66.100 234
 66.120 272
 66.140 243
 66.160 249
 66.180 249
 66.200 219
 66.220 262
 66.240 231
 66.260 265
 66.280 234
 66.300 249
 66.320 231
 66.340 240
 66.360 252
 66.380 222
 66.400 210
 66.420 234
 66.440 256
 66.460 262
 66.480 265
 66.500 246
 66.520 216
 66.540 198
 66.560 219
 66.580 237
 66.600 225
 66.620 213
 66.640 219
 66.660 234
 66.680 201
 66.700 243
 66.720 210
 66.740 246
 66.760 237
 66.780 216
 66.800 210
 66.820 210
 66.840 207
 66.860 213
 66.880 190
 66.900 201
 66.920 237
 66.940 219
 66.960 213
 66.980 201
 67.000 222
 67.020 207
 67.040 198
 67.060 204
 67.080 182
 67.100 196
 67.120 196
 67.140 190
 67.160 201
 67.180 190
 67.200 193
 67.220 193
 67.240 182
 67.260 174
 67.280 219
 67.300 187
 67.320 193
 67.340 207
 67.360 225
 67.380 207
 67.400 184
 67.420 182
 67.440 187
 67.460 184
 67.480 213
 67.500 196
 67.520 193
 67.540 216
 67.560 179
 67.580 207
 67.600 198
 67.620 219
 67.640 237
 67.660 240
 67.680 243
 67.700 222
 67.720 222
 67.740 216
 67.760 193
 67.780 207
 67.800 225
 67.820 234
 67.840 216
 67.860 234
 67.880 219
 67.900 225
 67.920 240
 67.940 246
 67.960 228
 67.980 234
 68.000 198
 68.020 201
 68.040 174
 68.060 174
 68.080 176
 68.100 187
 68.120 219
 68.140 193
 68.160 190
 68.180 196
 68.200 176
 68.220 184
 68.240 153
 68.260 179
 68.280 182
 68.300 176
 68.320 193
 68.340 179
 68.360 198
 68.380 174
 68.400 201
 68.420 187
 68.440 174
 68.460 158
 68.480 198
 68.500 190
 68.520 169
 68.540 182
 68.560 166
 68.580 166
 68.600 210
 68.620 201
 68.640 196
 68.660 169
 68.680 198
 68.700 169
 68.720 174
 68.740 198
 68.760 187
 68.780 182
 68.800 182
 68.820 176
 68.840 182
 68.860 174
 68.880 184
 68.900 187
 68.920 171
 68.940 171
 68.960 196
 68.980 190
 69.000 182
 69.020 196
 69.040 198
 69.060 193
 69.080 210
 69.100 193
 69.120 213
 69.140 210
 69.160 190
 69.180 201
 69.200 196
 69.220 193
 69.240 201
 69.260 210
 69.280 207
 69.300 210
 69.320 222
 69.340 187
 69.360 158
 69.380 210
 69.400 196
 69.420 207
 69.440 182
 69.460 184
 69.480 207
 69.500 213
 69.520 184
 69.540 176
 69.560 193
 69.580 193
 69.600 201
 69.620 187
 69.640 207
 69.660 193
 69.680 207
 69.700 190
 69.720 204
 69.740 187
 69.760 182
 69.780 174
 69.800 201
 69.820 184
 69.840 213
 69.860 201
 69.880 219
 69.900 184
 69.920 207
 69.940 184
 69.960 196
 69.980 213
 70.000 184
 70.020 184
 70.040 207
 70.060 198
 70.080 207
 70.100 184
 70.120 201
 70.140 207
 70.160 207
 70.180 193
 70.200 198
 70.220 182
 70.240 207
 70.260 207
 70.280 184
 70.300 207
 70.320 231
 70.340 187
 70.360 222
 70.380 210
 70.400 213
 70.420 219
 70.440 222
 70.460 216
 70.480 210
 70.500 210
 70.520 246
 70.540 213
 70.560 240
 70.580 207
 70.600 216
 70.620 213
 70.640 231
 70.660 219
 70.680 249
 70.700 216
 70.720 243
 70.740 234
 70.760 234
 70.780 237
 70.800 240
 70.820 262
 70.840 234
 70.860 237
 70.880 246
 70.900 219
 70.920 231
 70.940 228
 70.960 210
 70.980 210
 71.000 207
 71.020 207
 71.040 210
 71.060 219
 71.080 174
 71.100 193
 71.120 193
 71.140 204
 71.160 193
 71.180 198
 71.200 190
 71.220 193
 71.240 207
 71.260 210
 71.280 176
 71.300 196
 71.320 201
 71.340 190
 71.360 163
 71.380 179
 71.400 174
 71.420 196
 71.440 216
 71.460 187
 71.480 196
 71.500 204
 71.520 196
 71.540 176
 71.560 201
 71.580 198
 71.600 201
 71.620 176
 71.640 144
 71.660 193
 71.680 204
 71.700 169
 71.720 193
 71.740 187
 71.760 176
 71.780 166
 71.800 184
 71.820 179
 71.840 148
 71.860 158
 71.880 163
 71.900 190
 71.920 190
 71.940 198
 71.960 182
 71.980 166
 72.000 187
 72.020 171
 72.040 171
 72.060 169
 72.080 179
 72.100 190
 72.120 174
 72.140 190
 72.160 222
 72.180 198
 72.200 184
 72.220 201
 72.240 187
 72.260 179
 72.280 198
 72.300 196
 72.320 184
 72.340 187
 72.360 198
 72.380 174
 72.400 216
 72.420 222
 72.440 187
 72.460 198
 72.480 184
 72.500 201
 72.520 210
 72.540 184
 72.560 179
 72.580 231
 72.600 222
 72.620 179
 72.640 201
 72.660 207
 72.680 204
 72.700 190
 72.720 213
 72.740 169
 72.760 201
 72.780 187
 72.800 174
 72.820 196
 72.840 187
 72.860 198
 72.880 193
 72.900 161
 72.920 184
 72.940 182
 72.960 207
 72.980 201
 73.000 207
 73.020 179
 73.040 207
 73.060 176
 73.080 193
 73.100 210
 73.120 184
 73.140 201
 73.160 187
 73.180 204
 73.200 196
 73.220 198
 73.240 213
 73.260 213
 73.280 201
 73.300 187
 73.320 207
 73.340 196
 73.360 225
 73.380 198
 73.400 198
 73.420 201
 73.440 198
 73.460 174
 73.480 225
 73.500 196
 73.520 198
 73.540 198
 73.560 198
 73.580 207
 73.600 210
 73.620 184
 73.640 219
 73.660 213
 73.680 207
 73.700 207
 73.720 228
 73.740 219
 73.760 240
 73.780 207
 73.800 198
 73.820 196
 73.840 184
 73.860 196
 73.880 196
 73.900 193
 73.920 174
 73.940 213
 73.960 198
 73.980 198
 74.000 179
 74.020 201
 74.040 182
 74.060 207
 74.080 161
 74.100 193
 74.120 182
 74.140 169
 74.160 193
 74.180 163
 74.200 201
 74.220 161
 74.240 184
 74.260 171
 74.280 163
 74.300 201
 74.320 176
 74.340 207
 74.360 207
 74.380 174
 74.400 161
 74.420 184
 74.440 182
 74.460 184
 74.480 198
 74.500 182
 74.520 187
 74.540 196
 74.560 210
 74.580 204
 74.600 201
 74.620 196
 74.640 187
 74.660 198
 74.680 204
 74.700 207
 74.720 204
 74.740 193
 74.760 196
 74.780 198
 74.800 182
 74.820 184
 74.840 216
 74.860 219
 74.880 193
 74.900 201
 74.920 216
 74.940 187
 74.960 187
 74.980 184
 75.000 196
 75.020 207
 75.040 207
 75.060 201
 75.080 207
 75.100 196
 75.120 222
 75.140 246
 75.160 204
 75.180 228
 75.200 216
 75.220 222
 75.240 201
 75.260 216
 75.280 225
 75.300 219
 75.320 193
 75.340 204
 75.360 184
 75.380 216
 75.400 198
 75.420 201
 75.440 222
 75.460 249
 75.480 190
 75.500 193
 75.520 204
 75.540 204
 75.560 190
 75.580 184
 75.600 201
 75.620 198
 75.640 207
 75.660 198
 75.680 210
 75.700 210
 75.720 204
 75.740 210
 75.760 166
 75.780 193
 75.800 187
 75.820 201
 75.840 184
 75.860 201
 75.880 184
 75.900 184
 75.920 201
 75.940 176
 75.960 216
 75.980 201
 76.000 187
 76.020 193
 76.040 196
 76.060 193
 76.080 201
 76.100 190
 76.120 190
 76.140 204
 76.160 171
 76.180 184
 76.200 210
 76.220 201
 76.240 182
 76.260 169
 76.280 201
 76.300 228
 76.320 201
 76.340 198
 76.360 184
 76.380 176
 76.400 190
 76.420 184
 76.440 187
 76.460 171
 76.480 204
 76.500 196
 76.520 171
 76.540 182
 76.560 171
 76.580 182
 76.600 184
 76.620 196
 76.640 174
 76.660 187
 76.680 174
 76.700 171
 76.720 179
 76.740 171
 76.760 169
 76.780 176
 76.800 179
 76.820 196
 76.840 176
 76.860 198
 76.880 176
 76.900 210
 76.920 174
 76.940 187
 76.960 193
 76.980 184
 77.000 196
 77.020 213
 77.040 201
 77.060 204
 77.080 184
 77.100 187
 77.120 169
 77.140 193
 77.160 171
 77.180 193
 77.200 187
 77.220 184
 77.240 193
 77.260 190
 77.280 201
 77.300 187
 77.320 187
 77.340 158
 77.360 225
 77.380 193
 77.400 193
 77.420 176
 77.440 171
 77.460 161
 77.480 174
 77.500 213
 77.520 201
 77.540 158
 77.560 196
 77.580 196
 77.600 193
 77.620 193
 77.640 207
 77.660 184
 77.680 190
 77.700 207
 77.720 184
 77.740 201
 77.760 196
 77.780 196
 77.800 201
 77.820 190
 77.840 184
 77.860 210
 77.880 196
 77.900 193
 77.920 225
 77.940 213
 77.960 219
 77.980 179
 78.000 222
 78.020 216
 78.040 201
 78.060 207
 78.080 187
 78.100 213
 78.120 182
 78.140 193
 78.160 198
 78.180 184
 78.200 216
 78.220 201
 78.240 196
 78.260 222
 78.280 201
 78.300 219
 78.320 198
 78.340 169
 78.360 187
 78.380 196
 78.400 240
 78.420 184
 78.440 196
 78.460 179
 78.480 187
 78.500 193
 78.520 213
 78.540 174
 78.560 187
 78.580 176
 78.600 184
 78.620 169
 78.640 187
 78.660 169
 78.680 184
 78.700 184
 78.720 176
 78.740 182
 78.760 163
 78.780 171
 78.800 210
 78.820 182
 78.840 174
 78.860 187
 78.880 166
 78.900 179
 78.920 163
 78.940 176
 78.960 176
 78.980 166
 79.000 169
 79.020 184
 79.040 182
 79.060 187
 79.080 198
 79.100 201
 79.120 182
 79.140 187
 79.160 184
 79.180 204
 79.200 184
 79.220 201
 79.240 193
 79.260 213
 79.280 179
 79.300 201
 79.320 198
 79.340 210
 79.360 196
 79.380 176
 79.400 201
 79.420 179
 79.440 216
 79.460 210
 79.480 196
 79.500 182
 79.520 225
 79.540 193
 79.560 179
 79.580 222
 79.600 219
 79.620 193
 79.640 182
 79.660 225
 79.680 207
 79.700 216
 79.720 231
 79.740 222
 79.760 196
 79.780 210
 79.800 196
 79.820 196
 79.840 219
 79.860 196
 79.880 179
 79.900 193
 79.920 213
 79.940 225
 79.960 204
 79.980 240
 80.000 187
 80.020 216
 80.040 196
 80.060 193
 80.080 219
 80.100 204
 80.120 184
 80.140 210
 80.160 193
 80.180 187
 80.200 201
 80.220 193
 80.240 222
 80.260 204
 80.280 169
 80.300 196
 80.320 161
 80.340 196
 80.360 174
 80.380 174
 80.400 228
 80.420 249
 80.440 272
 80.460 210
 80.480 198
 80.500 174
 80.520 210
 80.540 187
 80.560 204
 80.580 216
 80.600 234
 80.620 228
 80.640 249
 80.660 207
 80.680 219
 80.700 222
 80.720 210
 80.740 182
 80.760 198
 80.780 156
 80.800 176
 80.820 182
 80.840 158
 80.860 184
 80.880 196
 80.900 193
 80.920 228
 80.940 174
 80.960 179
 80.980 148
 81.000 184
 81.020 187
 81.040 176
 81.060 176
 81.080 171
 81.100 161
 81.120 174
 81.140 169
 81.160 187
 81.180 184
 81.200 174
 81.220 156
 81.240 190
 81.260 169
 81.280 158
 81.300 171
 81.320 176
 81.340 166
 81.360 163
 81.380 182
 81.400 144
 81.420 156
 81.440 184
 81.460 141
 81.480 148
 81.500 179
 81.520 161
 81.540 163
 81.560 139
 81.580 179
 81.600 163
 81.620 153
 81.640 163
 81.660 158
 81.680 163
 81.700 161
 81.720 166
 81.740 148
 81.760 158
 81.780 158
 81.800 146
 81.820 153
 81.840 163
 81.860 153
 81.880 151
 81.900 179
 81.920 190
 81.940 158
 81.960 169
 81.980 171
 82.000 171
 82.020 158
 82.040 174
 82.060 176
 82.080 171
 82.100 184
 82.120 163
 82.140 182
 82.160 169
 82.180 187
 82.200 158
 82.220 151
 82.240 210
 82.260 210
 82.280 182
 82.300 204
 82.320 171
 82.340 174
 82.360 182
 82.380 184
 82.400 201
 82.420 210
 82.440 204
 82.460 204
 82.480 201
 82.500 198
 82.520 193
 82.540 182
 82.560 166
 82.580 176
 82.600 193
 82.620 193
 82.640 201
 82.660 182
 82.680 193
 82.700 190
 82.720 182
 82.740 184
 82.760 193
 82.780 184
 82.800 187
 82.820 193
 82.840 193
 82.860 169
 82.880 198
 82.900 174
 82.920 151
 82.940 179
 82.960 182
 82.980 163
 83.000 184
 83.020 153
 83.040 198
 83.060 187
 83.080 161
 83.100 201
 83.120 179
 83.140 171
 83.160 190
 83.180 161
 83.200 179
 83.220 153
 83.240 144
 83.260 187
 83.280 156
 83.300 169
 83.320 184
 83.340 174
 83.360 213
 83.380 179
 83.400 176
 83.420 156
 83.440 163
 83.460 176
 83.480 193
 83.500 198
 83.520 176
 83.540 169
 83.560 166
 83.580 163
 83.600 161
 83.620 169
 83.640 163
 83.660 141
 83.680 166
 83.700 166
 83.720 169
 83.740 153
 83.760 161
 83.780 171
 83.800 158
 83.820 129
 83.840 156
 83.860 174
 83.880 169
 83.900 171
 83.920 213
 83.940 171
 83.960 132
 83.980 139
 84.000 156
 84.020 193
 84.040 158
 84.060 153
 84.080 179
 84.100 161
 84.120 158
 84.140 163
 84.160 187
 84.180 169
 84.200 158
 84.220 174
 84.240 169
 84.260 171
 84.280 176
 84.300 163
 84.320 176
 84.340 190
 84.360 166
 84.380 190
 84.400 187
 84.420 182
 84.440 187
 84.460 219
 84.480 158
 84.500 198
 84.520 169
 84.540 171
 84.560 156
 84.580 161
 84.600 184
 84.620 174
 84.640 190
 84.660 169
 84.680 201
 84.700 169
 84.720 193
 84.740 190
 84.760 169
 84.780 204
 84.800 182
 84.820 153
 84.840 156
 84.860 158
 84.880 148
 84.900 174
 84.920 182
 84.940 166
 84.960 148
 84.980 179
 85.000 166
 85.020 161
 85.040 156
 85.060 156
 85.080 171
 85.100 153
 85.120 169
 85.140 158
 85.160 166
 85.180 176
 85.200 169
 85.220 166
 85.240 176
 85.260 146
 85.280 174
 85.300 158
 85.320 179
 85.340 169
 85.360 174
 85.380 182
 85.400 156
 85.420 174
 85.440 161
 85.460 166
 85.480 176
 85.500 166
 85.520 153
 85.540 163
 85.560 171
 85.580 166
 85.600 148
 85.620 151
 85.640 171
 85.660 158
 85.680 169
 85.700 174
 85.720 156
 85.740 146
 85.760 171
 85.780 176
 85.800 174
 85.820 148
 85.840 184
 85.860 174
 85.880 169
 85.900 182
 85.920 151
 85.940 187
 85.960 158
 85.980 163
 86.000 163
 86.020 153
 86.040 176
 86.060 158
 86.080 161
 86.100 146
 86.120 169
 86.140 153
 86.160 207
 86.180 174
 86.200 174
 86.220 174
 86.240 198
 86.260 166
 86.280 179
 86.300 148
 86.320 136
 86.340 184
 86.360 163
 86.380 176
 86.400 169
 86.420 151
 86.440 158
 86.460 132
 86.480 161
 86.500 127
 86.520 158
 86.540 161
 86.560 176
 86.580 153
 86.600 169
 86.620 144
 86.640 158
 86.660 184
 86.680 148
 86.700 146
 86.720 148
 86.740 176
 86.760 174
 86.780 153
 86.800 169
 86.820 171
 86.840 156
 86.860 169
 86.880 151
 86.900 139
 86.920 148
 86.940 179
 86.960 156
 86.980 161
 87.000 163
 87.020 156
 87.040 144
 87.060 156
 87.080 163
 87.100 153
 87.120 176
 87.140 166
 87.160 163
 87.180 161
 87.200 153
 87.220 156
 87.240 176
 87.260 151
 87.280 166
 87.300 174
 87.320 158
 87.340 176
 87.360 144
 87.380 166
 87.400 174
 87.420 146
 87.440 156
 87.460 171
 87.480 153
 87.500 158
 87.520 156
 87.540 153
 87.560 153
 87.580 182
 87.600 171
 87.620 144
 87.640 182
 87.660 163
 87.680 161
 87.700 176
 87.720 156
 87.740 166
 87.760 144
 87.780 166
 87.800 163
 87.820 169
 87.840 153
 87.860 161
 87.880 161
 87.900 125
 87.920 144
 87.940 148
 87.960 148
 87.980 187
 88.000 136
 88.020 148
 88.040 158
 88.060 166
 88.080 146
 88.100 141
 88.120 136
 88.140 158
 88.160 158
 88.180 141
 88.200 153
 88.220 163
 88.240 163
 88.260 174
 88.280 158
 88.300 169
 88.320 144
 88.340 146
 88.360 153
 88.380 146
 88.400 176
 88.420 134
 88.440 148
 88.460 158
 88.480 176
 88.500 141
 88.520 163
 88.540 161
 88.560 146
 88.580 166
 88.600 176
 88.620 201
 88.640 169
 88.660 182
 88.680 163
 88.700 161
 88.720 169
 88.740 171
 88.760 169
 88.780 151
 88.800 156
 88.820 158
 88.840 148
 88.860 156
 88.880 141
 88.900 151
 88.920 171
 88.940 148
 88.960 161
 88.980 169
 89.000 148
 89.020 179
 89.040 141
 89.060 166
 89.080 163
 89.100 156
 89.120 139
 89.140 153
 89.160 166
 89.180 129
 89.200 153
 89.220 158
 89.240 163
 89.260 132
 89.280 156
 89.300 129
 89.320 156
 89.340 171
 89.360 166
 89.380 136
 89.400 158
 89.420 151
 89.440 144
 89.460 163
 89.480 174
 89.500 151
 89.520 146
 89.540 151
 89.560 148
 89.580 156
 89.600 161
 89.620 146
 89.640 158
 89.660 156
 89.680 169
 89.700 182
 89.720 193
 89.740 163
 89.760 213
 89.780 240
 89.800 219
 89.820 193
 89.840 187
 89.860 163
 89.880 156
 89.900 148
 89.920 163
 89.940 156
 89.960 163
 89.980 161
 90.000 153
 90.020 163
 90.040 176
 90.060 198
 90.080 196
 90.100 174
 90.120 187
 90.140 148
 90.160 169
 90.180 151
 90.200 163
 90.220 163
 90.240 153
 90.260 151
 90.280 161
 90.300 151
 90.320 161
 90.340 153
 90.360 176
 90.380 127
 90.400 153
 90.420 144
 90.440 153
 90.460 148
 90.480 156
 90.500 153
 90.520 148
 90.540 163
 90.560 136
 90.580 153
 90.600 136
 90.620 153
 90.640 171
 90.660 146
 90.680 158
 90.700 151
 90.720 136
 90.740 144
 90.760 148
 90.780 158
 90.800 158
 90.820 144
 90.840 153
 90.860 166
 90.880 132
 90.900 151
 90.920 144
 90.940 153
 90.960 166
 90.980 153
 91.000 156
 91.020 158
 91.040 141
 91.060 161
 91.080 129
 91.100 151
 91.120 141
 91.140 148
 91.160 166
 91.180 163
 91.200 151
 91.220 171
 91.240 156
 91.260 158
 91.280 144
 91.300 171
 91.320 153
 91.340 146
 91.360 141
 91.380 148
 91.400 132
 91.420 153
 91.440 148
 91.460 163
 91.480 151
 91.500 161
 91.520 174
 91.540 141
 91.560 156
 91.580 144
 91.600 148
 91.620 166
 91.640 129
 91.660 136
 91.680 125
 91.700 139
 91.720 176
 91.740 141
 91.760 158
 91.780 161
 91.800 156
 91.820 139
 91.840 139
 91.860 156
 91.880 166
 91.900 163
 91.920 132
 91.940 132
 91.960 134
 91.980 156
 92.000 136
 92.020 144
 92.040 144
 92.060 153
 92.080 136
 92.100 144
 92.120 153
 92.140 156
 92.160 134
 92.180 148
 92.200 118
 92.220 146
 92.240 144
 92.260 136
 92.280 121
 92.300 116
 92.320 158
 92.340 146
 92.360 129
 92.380 136
 92.400 118
 92.420 118
 92.440 136
 92.460 148
 92.480 139
 92.500 144
 92.520 129
 92.540 127
 92.560 158
 92.580 166
 92.600 136
 92.620 136
 92.640 134
 92.660 148
 92.680 166
 92.700 166
 92.720 156
 92.740 158
 92.760 123
 92.780 141
 92.800 148
 92.820 144
 92.840 129
 92.860 161
 92.880 141
 92.900 139
 92.920 146
 92.940 134
 92.960 146
 92.980 158
 93.000 161
 93.020 153
 93.040 166
 93.060 169
 93.080 213
 93.100 204
 93.120 204
 93.140 193
 93.160 201
 93.180 182
 93.200 158
 93.220 166
 93.240 129
 93.260 134
 93.280 146
 93.300 151
 93.320 158
 93.340 139
 93.360 151
 93.380 139
 93.400 156
 93.420 187
 93.440 161
 93.460 169
 93.480 158
 93.500 161
 93.520 151
 93.540 139
 93.560 158
 93.580 151
 93.600 148
 93.620 158
 93.640 153
 93.660 144
 93.680 158
 93.700 163
 93.720 146
 93.740 156
 93.760 144
 93.780 127
 93.800 136
 93.820 153
 93.840 141
 93.860 146
 93.880 148
 93.900 148
 93.920 161
 93.940 136
 93.960 158
 93.980 146
 94.000 163
 94.020 163
 94.040 127
 94.060 169
 94.080 148
 94.100 163
 94.120 144
 94.140 163
 94.160 153
 94.180 166
 94.200 176
 94.220 146
 94.240 148
 94.260 163
 94.280 151
 94.300 148
 94.320 144
 94.340 153
 94.360 132
 94.380 158
 94.400 169
 94.420 158
 94.440 139
 94.460 146
 94.480 141
 94.500 148
 94.520 166
 94.540 144
 94.560 151
 94.580 141
 94.600 146
 94.620 148
 94.640 156
 94.660 151
 94.680 146
 94.700 141
 94.720 146
 94.740 139
 94.760 158
 94.780 163
 94.800 161
 94.820 146
 94.840 132
 94.860 125
 94.880 134
 94.900 166
 94.920 163
 94.940 141
 94.960 134
 94.980 158
 95.000 148
 95.020 151
 95.040 121
 95.060 136
 95.080 148
 95.100 134
 95.120 134
 95.140 129
 95.160 144
 95.180 129
 95.200 136
 95.220 144
 95.240 139
 95.260 141
 95.280 139
 95.300 151
 95.320 144
 95.340 148
 95.360 136
 95.380 139
 95.400 144
 95.420 136
 95.440 136
 95.460 136
 95.480 139
 95.500 153
 95.520 151
 95.540 132
 95.560 153
 95.580 121
 95.600 127
 95.620 146
 95.640 136
 95.660 136
 95.680 161
 95.700 146
 95.720 146
 95.740 141
 95.760 153
 95.780 153
 95.800 136
 95.820 139
 95.840 121
 95.860 141
 95.880 132
 95.900 118
 95.920 158
 95.940 134
 95.960 153
 95.980 121
 96.000 127
 96.020 136
 96.040 136
 96.060 146
 96.080 129
 96.100 169
 96.120 136
 96.140 151
 96.160 132
 96.180 141
 96.200 148
 96.220 129
 96.240 156
 96.260 166
 96.280 151
 96.300 151
 96.320 132
 96.340 114
 96.360 146
 96.380 156
 96.400 153
 96.420 156
 96.440 169
 96.460 171
 96.480 161
 96.500 151
 96.520 141
 96.540 158
 96.560 148
 96.580 153
 96.600 158
 96.620 146
 96.640 158
 96.660 153
 96.680 148
 96.700 148
 96.720 169
 96.740 174
 96.760 148
 96.780 146
 96.800 163
 96.820 153
 96.840 148
 96.860 134
 96.880 127
 96.900 146
 96.920 151
 96.940 132
 96.960 141
 96.980 151
 97.000 144
 97.020 127
 97.040 134
 97.060 134
 97.080 121
 97.100 129
 97.120 125
 97.140 146
 97.160 116
 97.180 136
 97.200 139
 97.220 108
 97.240 148
 97.260 123
 97.280 136
 97.300 151
 97.320 127
 97.340 123
 97.360 151
 97.380 121
 97.400 146
 97.420 127
 97.440 125
 97.460 129
 97.480 125
 97.500 139
 97.520 127
 97.540 139
 97.560 132
 97.580 136
 97.600 132
 97.620 123
 97.640 125
 97.660 146
 97.680 161
 97.700 118
 97.720 136
 97.740 129
 97.760 139
 97.780 121
 97.800 144
 97.820 144
 97.840 136
 97.860 129
 97.880 139
 97.900 153
 97.920 156
 97.940 139
 97.960 121
 97.980 132
 98.000 129
 98.020 144
 98.040 129
 98.060 123
 98.080 144
 98.100 123
 98.120 132
 98.140 148
 98.160 123
 98.180 132
 98.200 153
 98.220 121
 98.240 127
 98.260 129
 98.280 134
 98.300 144
 98.320 132
 98.340 123
 98.360 141
 98.380 123
 98.400 144
 98.420 123
 98.440 116
 98.460 129
 98.480 146
 98.500 125
 98.520 121
 98.540 129
 98.560 118
 98.580 144
 98.600 146
 98.620 108
 98.640 146
 98.660 121
 98.680 125
 98.700 108
 98.720 151
 98.740 136
 98.760 134
 98.780 123
 98.800 136
 98.820 136
 98.840 146
 98.860 121
 98.880 118
 98.900 123
 98.920 141
 98.940 139
 98.960 153
 98.980 141
 99.000 132
 99.020 121
 99.040 141
 99.060 118
 99.080 121
 99.100 132
 99.120 144
 99.140 139
 99.160 146
 99.180 129
 99.200 132
 99.220 136
 99.240 123
 99.260 136
 99.280 121
 99.300 139
 99.320 136
 99.340 139
 99.360 129
 99.380 112
 99.400 123
 99.420 129
 99.440 123
 99.460 132
 99.480 144
 99.500 121
 99.520 139
 99.540 148
 99.560 132
 99.580 110
 99.600 148
 99.620 139
 99.640 134
 99.660 134
 99.680 129
 99.700 144
 99.720 110
 99.740 144
 99.760 132
 99.780 125
 99.800 129
 99.820 134
 99.840 132
 99.860 144
 99.880 125
 99.900 129
 99.920 144
 99.940 127
 99.960 125
 99.980 125
100.000 116
