  5.000 210
  5.020 210
  5.040 213
  5.060 176
  5.080 184
  5.100 201
  5.120 210
  5.140 240
  5.160 201
  5.180 198
  5.200 222
  5.220 222
  5.240 207
  5.260 222
  5.280 182
  5.300 193
  5.320 193
  5.340 179
  5.360 174
  5.380 198
  5.400 169
  5.420 190
  5.440 166
  5.460 187
  5.480 187
  5.500 169
  5.520 179
  5.540 190
  5.560 187
  5.580 198
  5.600 174
  5.620 196
  5.640 196
  5.660 166
  5.680 179
  5.700 190
  5.720 187
  5.740 169
  5.760 187
  5.780 184
  5.800 193
  5.820 156
  5.840 184
  5.860 166
  5.880 179
  5.900 198
  5.920 190
  5.940 187
  5.960 193
  5.980 171
  6.000 201
  6.020 198
  6.040 184
  6.060 171
  6.080 169
  6.100 182
  6.120 201
  6.140 179
  6.160 201
  6.180 184
  6.200 187
  6.220 210
  6.240 166
  6.260 184
  6.280 204
  6.300 196
  6.320 153
  6.340 207
  6.360 204
  6.380 184
  6.400 198
  6.420 184
  6.440 201
  6.460 204
  6.480 207
  6.500 193
  6.520 210
  6.540 225
  6.560 252
  6.580 265
  6.600 285
  6.620 285
  6.640 289
  6.660 313
  6.680 372
  6.700 400
  6.720 357
  6.740 353
  6.760 384
  6.780 441
  6.800 445
  6.820 538
  6.840 585
  6.860 696
  6.880 817
  6.900 894
  6.920 918
  6.940 812
  6.960 635
  6.980 488
  7.000 388
  7.020 275
  7.040 275
  7.060 262
  7.080 282
  7.100 320
  7.120 306
  7.140 368
  7.160 412
  7.180 453
  7.200 453
  7.220 506
  7.240 479
  7.260 510
  7.280 457
  7.300 492
  7.320 538
  7.340 515
  7.360 556
  7.380 655
  7.400 650
  7.420 789
  7.440 870
  7.460 1017
  7.480 1095
  7.500 1296
  7.520 1466
  7.540 1738
  7.560 2016
  7.580 2332
  7.600 2621
  7.620 2992
  7.640 3528
  7.660 4032
  7.680 4529
  7.700 5329
  7.720 6177
  7.740 7464
  7.760 8779
  7.780 10774
  7.800 13665
  7.820 16926
  7.840 21963
  7.860 29241
  7.880 40280
  7.900 58273
  7.920 85264
  7.940 124467
  7.960 154920
  7.980 159600
  8.000 136161
  8.020 96162
  8.040 48444
  8.060 17556
  8.080 5913
  8.100 2981
  8.120 2237
  8.140 1738
  8.160 1466
  8.180 1239
  8.200 1075
  8.220 985
  8.240 870
  8.260 985
  8.280 979
  8.300 888
  8.320 852
  8.340 772
  8.360 702
  8.380 510
  8.400 412
  8.420 299
  8.440 219
  8.460 196
  8.480 198
  8.500 201
  8.520 179
  8.540 190
  8.560 174
  8.580 163
  8.600 166
  8.620 156
  8.640 171
  8.660 132
  8.680 127
  8.700 139
  8.720 129
  8.740 139
  8.760 132
  8.780 153
  8.800 129
  8.820 148
  8.840 158
  8.860 144
  8.880 127
  8.900 134
  8.920 116
  8.940 134
  8.960 139
  8.980 136
  9.000 136
  9.020 132
  9.040 123
  9.060 136
  9.080 121
  9.100 139
  9.120 136
  9.140 125
  9.160 139
  9.180 116
  9.200 129
  9.220 129
  9.240 125
  9.260 144
  9.280 127
  9.300 125
  9.320 144
  9.340 127
  9.360 134
  9.380 134
  9.400 153
  9.420 151
  9.440 136
  9.460 166
  9.480 127
  9.500 141
  9.520 134
  9.540 123
  9.560 136
  9.580 123
  9.600 118
  9.620 132
  9.640 125
  9.660 144
  9.680 114
  9.700 146
  9.720 129
  9.740 112
  9.760 139
  9.780 136
  9.800 118
  9.820 156
  9.840 134
  9.860 134
  9.880 148
  9.900 166
  9.920 169
  9.940 171
  9.960 184
  9.980 176
 10.000 210
 10.020 222
 10.040 228
 10.060 259
 10.080 234
 10.100 278
 10.120 265
 10.140 334
 10.160 392
 10.180 470
 10.200 571
 10.220 610
 10.240 681
 10.260 650
 10.280 761
 10.300 852
 10.320 900
 10.340 1108
 10.360 1317
 10.380 1536
 10.400 1823
 10.420 2580
 10.440 3192
 10.460 3564
 10.480 3271
 10.500 2410
 10.520 1444
 10.540 600
 10.560 324
 10.580 210
 10.600 198
 10.620 156
 10.640 163
 10.660 171
 10.680 144
 10.700 148
 10.720 127
 10.740 156
 10.760 139
 10.780 139
 10.800 151
 10.820 125
 10.840 141
 10.860 148
 10.880 141
 10.900 132
 10.920 129
 10.940 139
 10.960 132
 10.980 146
 11.000 171
 11.020 158
 11.040 141
 11.060 158
 11.080 169
 11.100 176
 11.120 169
 11.140 207
 11.160 243
 11.180 249
 11.200 275
 11.220 265
 11.240 210
 11.260 237
 11.280 299
 11.300 316
 11.320 380
 11.340 384
 11.360 416
 11.380 408
 11.400 515
 11.420 576
 11.440 620
 11.460 645
 11.480 691
 11.500 772
 11.520 767
 11.540 784
 11.560 906
 11.580 1296
 11.600 1797
 11.620 2470
 11.640 2862
 11.660 2883
 11.680 2570
 11.700 2171
 11.720 1600
 11.740 954
 11.760 497
 11.780 265
 11.800 213
 11.820 196
 11.840 193
 11.860 196
 11.880 184
 11.900 148
 11.920 136
 11.940 161
 11.960 144
 11.980 132
 12.000 158
 12.020 134
 12.040 174
 12.060 169
 12.080 171
 12.100 129
 12.120 139
 12.140 153
 12.160 136
 12.180 153
 12.200 153
 12.220 163
 12.240 176
 12.260 158
 12.280 144
 12.300 144
 12.320 166
 12.340 171
 12.360 193
 12.380 193
 12.400 196
 12.420 234
 12.440 222
 12.460 222
 12.480 285
 12.500 338
 12.520 396
 12.540 432
 12.560 506
 12.580 630
 12.600 640
 12.620 635
 12.640 635
 12.660 702
 12.680 795
 12.700 800
 12.720 906
 12.740 888
 12.760 750
 12.780 676
 12.800 506
 12.820 384
 12.840 306
 12.860 295
 12.880 313
 12.900 424
 12.920 462
 12.940 556
 12.960 702
 12.980 817
 13.000 973
 13.020 1149
 13.040 1592
 13.060 2570
 13.080 4212
 13.100 6241
 13.120 7796
 13.140 7921
 13.160 6938
 13.180 4316
 13.200 2430
 13.220 992
 13.240 441
 13.260 262
 13.280 207
 13.300 204
 13.320 184
 13.340 190
 13.360 190
 13.380 163
 13.400 153
 13.420 161
 13.440 169
 13.460 144
 13.480 136
 13.500 151
 13.520 132
 13.540 129
 13.560 144
 13.580 148
 13.600 166
 13.620 139
 13.640 144
 13.660 163
 13.680 171
 13.700 158
 13.720 163
 13.740 176
 13.760 219
 13.780 201
 13.800 204
 13.820 249
 13.840 234
 13.860 231
 13.880 268
 13.900 252
 13.920 246
 13.940 252
 13.960 237
 13.980 219
 14.000 275
 14.020 302
 14.040 306
 14.060 331
 14.080 368
 14.100 424
 14.120 488
 14.140 580
 14.160 645
 14.180 729
 14.200 789
 14.220 918
 14.240 1011
 14.260 1288
 14.280 1421
 14.300 1681
 14.320 1962
 14.340 2199
 14.360 2450
 14.380 2560
 14.400 2641
 14.420 2819
 14.440 2872
 14.460 3249
 14.480 3600
 14.500 3757
 14.520 3931
 14.540 4264
 14.560 4705
 14.580 5520
 14.600 6037
 14.620 5700
 14.640 4900
 14.660 3516
 14.680 2125
 14.700 1281
 14.720 1024
 14.740 686
 14.760 595
 14.780 428
 14.800 400
 14.820 295
 14.840 249
 14.860 231
 14.880 249
 14.900 216
 14.920 196
 14.940 193
 14.960 196
 14.980 196
 15.000 163
 15.020 196
 15.040 182
 15.060 204
 15.080 182
 15.100 207
 15.120 216
 15.140 259
 15.160 237
 15.180 259
 15.200 306
 15.220 309
 15.240 306
 15.260 357
 15.280 353
 15.300 388
 15.320 404
 15.340 488
 15.360 600
 15.380 655
 15.400 707
 15.420 729
 15.440 812
 15.460 894
 15.480 1232
 15.500 1310
 15.520 1183
 15.540 942
 15.560 600
 15.580 436
 15.600 353
 15.620 324
 15.640 376
 15.660 457
 15.680 506
 15.700 547
 15.720 580
 15.740 756
 15.760 806
 15.780 985
 15.800 1156
 15.820 1444
 15.840 1962
 15.860 2520
 15.880 3306
 15.900 4678
 15.920 6241
 15.940 8136
 15.960 10120
 15.980 11513
 16.000 11449
 16.020 9960
 16.040 7482
 16.060 4858
 16.080 2652
 16.100 1576
 16.120 992
 16.140 756
 16.160 696
 16.180 681
 16.200 696
 16.220 625
 16.240 529
 16.260 466
 16.280 441
 16.300 441
 16.320 376
 16.340 380
 16.360 334
 16.380 331
 16.400 320
 16.420 302
 16.440 313
 16.460 289
 16.480 313
 16.500 342
 16.520 384
 16.540 441
 16.560 576
 16.580 635
 16.600 723
 16.620 800
 16.640 841
 16.660 1069
 16.680 1190
 16.700 1406
 16.720 1632
 16.740 1764
 16.760 1772
 16.780 1576
 16.800 1421
 16.820 1122
 16.840 756
 16.860 566
 16.880 453
 16.900 376
 16.920 357
 16.940 364
 16.960 376
 16.980 353
 17.000 349
 17.020 368
 17.040 372
 17.060 384
 17.080 368
 17.100 316
 17.120 309
 17.140 246
 17.160 259
 17.180 228
 17.200 240
 17.220 225
 17.240 163
 17.260 213
 17.280 169
 17.300 166
 17.320 219
 17.340 219
 17.360 210
 17.380 201
 17.400 228
 17.420 207
 17.440 201
 17.460 207
 17.480 216
 17.500 225
 17.520 234
 17.540 240
 17.560 249
 17.580 302
 17.600 309
 17.620 327
 17.640 372
 17.660 432
 17.680 475
 17.700 542
 17.720 640
 17.740 718
 17.760 894
 17.780 918
 17.800 1115
 17.820 1288
 17.840 1413
 17.860 1489
 17.880 1413
 17.900 1253
 17.920 961
 17.940 767
 17.960 718
 17.980 625
 18.000 660
 18.020 734
 18.040 750
 18.060 712
 18.080 610
 18.100 605
 18.120 533
 18.140 484
 18.160 510
 18.180 484
 18.200 488
 18.220 515
 18.240 445
 18.260 515
 18.280 529
 18.300 533
 18.320 610
 18.340 645
 18.360 665
 18.380 686
 18.400 846
 18.420 942
 18.440 1135
 18.460 1281
 18.480 1489
 18.500 1697
 18.520 2061
 18.540 2430
 18.560 3058
 18.580 3794
 18.600 4542
 18.620 5745
 18.640 7208
 18.660 9082
 18.680 10962
 18.700 11968
 18.720 13317
 18.740 14352
 18.760 16384
 18.780 20022
 18.800 23195
 18.820 24398
 18.840 22831
 18.860 17956
 18.880 12056
 18.900 7072
 18.920 3881
 18.940 2007
 18.960 1346
 18.980 1082
 19.000 1030
 19.020 985
 19.040 998
 19.060 1024
 19.080 1024
 19.100 1004
 19.120 1024
 19.140 930
 19.160 823
 19.180 712
 19.200 739
 19.220 665
 19.240 580
 19.260 630
 19.280 650
 19.300 702
 19.320 767
 19.340 870
 19.360 985
 19.380 1169
 19.400 1332
 19.420 1482
 19.440 1648
 19.460 1900
 19.480 2246
 19.500 2756
 19.520 3113
 19.540 3757
 19.560 3782
 19.580 3588
 19.600 3249
 19.620 2580
 19.640 2043
 19.660 1513
 19.680 1043
 19.700 817
 19.720 645
 19.740 510
 19.760 479
 19.780 538
 19.800 510
 19.820 580
 19.840 580
 19.860 655
 19.880 681
 19.900 789
 19.920 795
 19.940 784
 19.960 835
 19.980 835
 20.000 823
 20.020 806
 20.040 812
 20.060 806
 20.080 876
 20.100 924
 20.120 936
 20.140 1082
 20.160 1128
 20.180 1267
 20.200 1436
 20.220 1482
 20.240 1624
 20.260 1780
 20.280 1857
 20.300 1927
 20.320 1980
 20.340 2016
 20.360 2143
 20.380 2218
 20.400 2304
 20.420 2323
 20.440 2199
 20.460 1909
 20.480 1436
 20.500 1011
 20.520 784
 20.540 590
 20.560 488
 20.580 441
 20.600 400
 20.620 420
 20.640 462
 20.660 538
 20.680 620
 20.700 712
 20.720 936
 20.740 1218
 20.760 1274
 20.780 1428
 20.800 1544
 20.820 1513
 20.840 1560
 20.860 1505
 20.880 1616
 20.900 1616
 20.920 1857
 20.940 2043
 20.960 2641
 20.980 3260
 21.000 3576
 21.020 3831
 21.040 3956
 21.060 3881
 21.080 3733
 21.100 3528
 21.120 3014
 21.140 2714
 21.160 2106
 21.180 1608
 21.200 1274
 21.220 954
 21.240 756
 21.260 615
 21.280 488
 21.300 449
 21.320 466
 21.340 449
 21.360 475
 21.380 436
 21.400 552
 21.420 479
 21.440 610
 21.460 620
 21.480 718
 21.500 829
 21.520 906
 21.540 967
 21.560 1069
 21.580 1156
 21.600 1149
 21.620 1169
 21.640 1428
 21.660 1436
 21.680 1505
 21.700 1489
 21.720 1260
 21.740 1128
 21.760 942
 21.780 795
 21.800 718
 21.820 723
 21.840 660
 21.860 745
 21.880 729
 21.900 789
 21.920 829
 21.940 954
 21.960 998
 21.980 906
 22.000 817
 22.020 888
 22.040 979
 22.060 967
 22.080 835
 22.100 686
 22.120 615
 22.140 585
 22.160 457
 22.180 436
 22.200 432
 22.220 441
 22.240 445
 22.260 404
 22.280 396
 22.300 396
 22.320 400
 22.340 416
 22.360 436
 22.380 506
 22.400 571
 22.420 580
 22.440 670
 22.460 745
 22.480 841
 22.500 1102
 22.520 1190
 22.540 1513
 22.560 1672
 22.580 1874
 22.600 1544
 22.620 973
 22.640 882
 22.660 640
 22.680 424
 22.700 412
 22.720 392
 22.740 400
 22.760 408
 22.780 445
 22.800 488
 22.820 519
 22.840 571
 22.860 625
 22.880 707
 22.900 823
 22.920 829
 22.940 906
 22.960 1011
 22.980 1082
 23.000 1225
 23.020 1317
 23.040 1489
 23.060 1521
 23.080 1632
 23.100 1866
 23.120 2134
 23.140 2430
 23.160 2704
 23.180 3226
 23.200 3648
 23.220 4006
 23.240 4489
 23.260 4998
 23.280 5929
 23.300 6658
 23.320 7691
 23.340 8798
 23.360 9389
 23.380 9525
 23.400 9196
 23.420 7849
 23.440 6368
 23.460 4802
 23.480 3329
 23.500 2361
 23.520 1689
 23.540 1232
 23.560 1056
 23.580 985
 23.600 894
 23.620 924
 23.640 829
 23.660 829
 23.680 846
 23.700 823
 23.720 784
 23.740 761
 23.760 702
 23.780 640
 23.800 686
 23.820 676
 23.840 655
 23.860 739
 23.880 778
 23.900 829
 23.920 876
 23.940 985
 23.960 1225
 23.980 1505
 24.000 1772
 24.020 2052
 24.040 2450
 24.060 2905
 24.080 3036
 24.100 2819
 24.120 2631
 24.140 2209
 24.160 1648
 24.180 1346
 24.200 1075
 24.220 967
 24.240 912
 24.260 924
 24.280 985
 24.300 1095
 24.320 1176
 24.340 1211
 24.360 1232
 24.380 1267
 24.400 1232
 24.420 1211
 24.440 1102
 24.460 1122
 24.480 1004
 24.500 1004
 24.520 1108
 24.540 1122
 24.560 1156
 24.580 1339
 24.600 1497
 24.620 1713
 24.640 1831
 24.660 2070
 24.680 2440
 24.700 2756
 24.720 2631
 24.740 2590
 24.760 2237
 24.780 1789
 24.800 1576
 24.820 1211
 24.840 942
 24.860 723
 24.880 660
 24.900 615
 24.920 625
 24.940 665
 24.960 789
 24.980 876
 25.000 973
 25.020 1036
 25.040 1135
 25.060 1296
 25.080 1317
 25.100 1369
 25.120 1383
 25.140 1398
 25.160 1369
 25.180 1376
 25.200 1369
 25.220 1218
 25.240 1004
 25.260 812
 25.280 723
 25.300 691
 25.320 800
 25.340 772
 25.360 702
 25.380 610
 25.400 457
 25.420 538
 25.440 376
 25.460 331
 25.480 349
 25.500 380
 25.520 349
 25.540 380
 25.560 441
 25.580 388
 25.600 432
 25.620 445
 25.640 457
 25.660 497
 25.680 542
 25.700 590
 25.720 686
 25.740 660
 25.760 806
 25.780 870
 25.800 973
 25.820 1102
 25.840 1176
 25.860 1303
 25.880 1361
 25.900 1398
 25.920 1332
 25.940 1281
 25.960 1225
 25.980 1169
 26.000 1056
 26.020 973
 26.040 823
 26.060 756
 26.080 645
 26.100 590
 26.120 620
 26.140 552
 26.160 580
 26.180 625
 26.200 645
 26.220 723
 26.240 789
 26.260 942
 26.280 1069
 26.300 1162
 26.320 1332
 26.340 1489
 26.360 1600
 26.380 1814
 26.400 2043
 26.420 2134
 26.440 2313
 26.460 2410
 26.480 2237
 26.500 2007
 26.520 1797
 26.540 1592
 26.560 1428
 26.580 1204
 26.600 1082
 26.620 948
 26.640 882
 26.660 876
 26.680 723
 26.700 702
 26.720 620
 26.740 580
 26.760 561
 26.780 515
 26.800 519
 26.820 556
 26.840 524
 26.860 580
 26.880 561
 26.900 640
 26.920 660
 26.940 630
 26.960 645
 26.980 655
 27.000 590
 27.020 552
 27.040 538
 27.060 466
 27.080 441
 27.100 388
 27.120 445
 27.140 510
 27.160 488
 27.180 547
 27.200 501
 27.220 524
 27.240 556
 27.260 600
 27.280 696
 27.300 745
 27.320 806
 27.340 718
 27.360 729
 27.380 702
 27.400 600
 27.420 576
 27.440 533
 27.460 449
 27.480 457
 27.500 436
 27.520 453
 27.540 475
 27.560 457
 27.580 519
 27.600 501
 27.620 538
 27.640 497
 27.660 510
 27.680 501
 27.700 466
 27.720 501
 27.740 492
 27.760 441
 27.780 412
 27.800 424
 27.820 400
 27.840 357
 27.860 420
 27.880 436
 27.900 400
 27.920 449
 27.940 492
 27.960 529
 27.980 600
 28.000 600
 28.020 707
 28.040 739
 28.060 841
 28.080 992
 28.100 1204
 28.120 1267
 28.140 1369
 28.160 1421
 28.180 1383
 28.200 1528
 28.220 1521
 28.240 1624
 28.260 1672
 28.280 1849
 28.300 1866
 28.320 1738
 28.340 1648
 28.360 1459
 28.380 1095
 28.400 846
 28.420 670
 28.440 542
 28.460 445
 28.480 436
 28.500 376
 28.520 441
 28.540 416
 28.560 436
 28.580 484
 28.600 466
 28.620 484
 28.640 488
 28.660 506
 28.680 457
 28.700 432
 28.720 353
 28.740 331
 28.760 299
 28.780 316
 28.800 282
 28.820 272
 28.840 262
 28.860 282
 28.880 278
 28.900 292
 28.920 299
 28.940 309
 28.960 349
 28.980 345
 29.000 380
 29.020 396
 29.040 432
 29.060 484
 29.080 529
 29.100 542
 29.120 552
 29.140 547
 29.160 620
 29.180 691
 29.200 806
 29.220 954
 29.240 1183
 29.260 1406
 29.280 1632
 29.300 1772
 29.320 1962
 29.340 2190
 29.360 2313
 29.380 2714
 29.400 2992
 29.420 3203
 29.440 3375
 29.460 3375
 29.480 3102
 29.500 2851
 29.520 2265
 29.540 1764
 29.560 1383
 29.580 1095
 29.600 864
 29.620 635
 29.640 510
 29.660 506
 29.680 501
 29.700 519
 29.720 510
 29.740 510
 29.760 501
 29.780 510
 29.800 453
 29.820 470
 29.840 466
 29.860 368
 29.880 408
 29.900 388
 29.920 400
 29.940 380
 29.960 380
 29.980 404
 30.000 392
 30.020 441
 30.040 428
 30.060 428
 30.080 449
 30.100 441
 30.120 462
 30.140 424
 30.160 470
 30.180 449
 30.200 392
 30.220 357
 30.240 349
 30.260 334
 30.280 302
 30.300 313
 30.320 320
 30.340 349
 30.360 324
 30.380 327
 30.400 345
 30.420 331
 30.440 334
 30.460 424
 30.480 424
 30.500 416
 30.520 470
 30.540 445
 30.560 470
 30.580 453
 30.600 479
 30.620 396
 30.640 432
 30.660 457
 30.680 432
 30.700 436
 30.720 453
 30.740 428
 30.760 470
 30.780 497
 30.800 510
 30.820 533
 30.840 595
 30.860 600
 30.880 660
 30.900 739
 30.920 918
 30.940 1089
 30.960 1197
 30.980 1069
 31.000 1089
 31.020 979
 31.040 912
 31.060 800
 31.080 655
 31.100 620
 31.120 605
 31.140 515
 31.160 501
 31.180 561
 31.200 615
 31.220 665
 31.240 750
 31.260 789
 31.280 882
 31.300 973
 31.320 888
 31.340 906
 31.360 806
 31.380 707
 31.400 696
 31.420 620
 31.440 645
 31.460 640
 31.480 734
 31.500 750
 31.520 835
 31.540 900
 31.560 979
 31.580 1062
 31.600 1036
 31.620 1082
 31.640 1156
 31.660 1369
 31.680 1608
 31.700 1866
 31.720 2007
 31.740 1998
 31.760 2025
 31.780 1936
 31.800 1764
 31.820 1648
 31.840 1600
 31.860 1444
 31.880 1413
 31.900 1398
 31.920 1391
 31.940 1528
 31.960 1536
 31.980 1600
 32.000 1747
 32.020 1806
 32.040 2016
 32.060 2265
 32.080 2756
 32.100 3203
 32.120 3969
 32.140 5184
 32.160 7293
 32.180 10221
 32.200 13971
 32.220 18496
 32.240 23439
 32.260 28022
 32.280 31506
 32.300 33415
 32.320 31969
 32.340 28696
 32.360 24586
 32.380 19488
 32.400 14592
 32.420 10670
 32.440 7796
 32.460 4886
 32.480 2970
 32.500 2070
 32.520 1747
 32.540 1738
 32.560 1780
 32.580 1764
 32.600 1697
 32.620 1505
 32.640 1497
 32.660 1406
 32.680 1346
 32.700 1135
 32.720 1024
 32.740 835
 32.760 767
 32.780 707
 32.800 660
 32.820 580
 32.840 571
 32.860 580
 32.880 640
 32.900 585
 32.920 615
 32.940 630
 32.960 615
 32.980 585
 33.000 676
 33.020 655
 33.040 718
 33.060 696
 33.080 723
 33.100 784
 33.120 852
 33.140 858
 33.160 936
 33.180 1011
 33.200 1082
 33.220 1162
 33.240 1296
 33.260 1459
 33.280 1640
 33.300 2007
 33.320 2209
 33.340 2323
 33.360 2480
 33.380 2352
 33.400 2401
 33.420 2560
 33.440 2560
 33.460 2430
 33.480 2450
 33.500 2540
 33.520 2862
 33.540 2959
 33.560 2937
 33.580 2766
 33.600 2520
 33.620 2313
 33.640 1909
 33.660 1632
 33.680 1406
 33.700 1169
 33.720 948
 33.740 795
 33.760 756
 33.780 696
 33.800 645
 33.820 691
 33.840 650
 33.860 645
 33.880 630
 33.900 665
 33.920 580
 33.940 580
 33.960 552
 33.980 484
 34.000 436
 34.020 428
 34.040 453
 34.060 466
 34.080 412
 34.100 506
 34.120 492
 34.140 538
 34.160 600
 34.180 605
 34.200 665
 34.220 670
 34.240 707
 34.260 750
 34.280 670
 34.300 665
 34.320 640
 34.340 585
 34.360 524
 34.380 515
 34.400 462
 34.420 420
 34.440 420
 34.460 368
 34.480 408
 34.500 380
 34.520 404
 34.540 392
 34.560 428
 34.580 428
 34.600 424
 34.620 453
 34.640 441
 34.660 424
 34.680 506
 34.700 492
 34.720 497
 34.740 529
 34.760 542
 34.780 610
 34.800 576
 34.820 620
 34.840 650
 34.860 590
 34.880 595
 34.900 610
 34.920 630
 34.940 635
 34.960 585
 34.980 542
 35.000 571
 35.020 552
 35.040 462
 35.060 424
 35.080 416
 35.100 436
 35.120 388
 35.140 400
 35.160 428
 35.180 449
 35.200 416
 35.220 412
 35.240 424
 35.260 475
 35.280 466
 35.300 524
 35.320 542
 35.340 561
 35.360 529
 35.380 484
 35.400 552
 35.420 552
 35.440 625
 35.460 595
 35.480 620
 35.500 542
 35.520 605
 35.540 635
 35.560 610
 35.580 561
 35.600 561
 35.620 519
 35.640 605
 35.660 542
 35.680 556
 35.700 580
 35.720 571
 35.740 650
 35.760 670
 35.780 650
 35.800 745
 35.820 707
 35.840 712
 35.860 718
 35.880 739
 35.900 784
 35.920 767
 35.940 870
 35.960 864
 35.980 973
 36.000 1095
 36.020 1036
 36.040 948
 36.060 942
 36.080 979
 36.100 1049
 36.120 1036
 36.140 912
 36.160 930
 36.180 784
 36.200 784
 36.220 789
 36.240 640
 36.260 542
 36.280 488
 36.300 432
 36.320 384
 36.340 376
 36.360 327
 36.380 376
 36.400 357
 36.420 368
 36.440 364
 36.460 368
 36.480 420
 36.500 432
 36.520 506
 36.540 533
 36.560 484
 36.580 506
 36.600 529
 36.620 533
 36.640 475
 36.660 497
 36.680 501
 36.700 484
 36.720 510
 36.740 519
 36.760 515
 36.780 492
 36.800 497
 36.820 506
 36.840 475
 36.860 470
 36.880 492
 36.900 475
 36.920 462
 36.940 432
 36.960 457
 36.980 462
 37.000 470
 37.020 457
 37.040 441
 37.060 466
 37.080 515
 37.100 533
 37.120 510
 37.140 615
 37.160 556
 37.180 561
 37.200 625
 37.220 625
 37.240 615
 37.260 670
 37.280 681
 37.300 670
 37.320 630
 37.340 566
 37.360 571
 37.380 492
 37.400 479
 37.420 441
 37.440 424
 37.460 432
 37.480 396
 37.500 376
 37.520 331
 37.540 324
 37.560 331
 37.580 384
 37.600 342
 37.620 404
 37.640 345
 37.660 357
 37.680 320
 37.700 338
 37.720 324
 37.740 376
 37.760 309
 37.780 345
 37.800 353
 37.820 338
 37.840 324
 37.860 364
 37.880 376
 37.900 392
 37.920 408
 37.940 488
 37.960 470
 37.980 466
 38.000 484
 38.020 484
 38.040 538
 38.060 585
 38.080 561
 38.100 620
 38.120 600
 38.140 676
 38.160 767
 38.180 852
 38.200 985
 38.220 985
 38.240 1095
 38.260 1036
 38.280 1024
 38.300 985
 38.320 1128
 38.340 1122
 38.360 1183
 38.380 1288
 38.400 1361
 38.420 1451
 38.440 1474
 38.460 1552
 38.480 1489
 38.500 1576
 38.520 1592
 38.540 1681
 38.560 1892
 38.580 2106
 38.600 2460
 38.620 2819
 38.640 3158
 38.660 2926
 38.680 2745
 38.700 2550
 38.720 2218
 38.740 2088
 38.760 1806
 38.780 1413
 38.800 1176
 38.820 1004
 38.840 936
 38.860 778
 38.880 712
 38.900 640
 38.920 561
 38.940 519
 38.960 492
 38.980 462
 39.000 441
 39.020 441
 39.040 420
 39.060 420
 39.080 372
 39.100 313
 39.120 449
 39.140 424
 39.160 400
 39.180 420
 39.200 412
 39.220 424
 39.240 449
 39.260 376
 39.280 445
 39.300 436
 39.320 457
 39.340 428
 39.360 441
 39.380 441
 39.400 404
 39.420 424
 39.440 445
 39.460 497
 39.480 576
 39.500 580
 39.520 595
 39.540 595
 39.560 515
 39.580 524
 39.600 605
 39.620 576
 39.640 561
 39.660 576
 39.680 630
 39.700 767
 39.720 823
 39.740 806
 39.760 778
 39.780 852
 39.800 823
 39.820 992
 39.840 948
 39.860 924
 39.880 784
 39.900 723
 39.920 734
 39.940 789
 39.960 846
 39.980 846
 40.000 858
 40.020 882
 40.040 870
 40.060 876
 40.080 858
 40.100 864
 40.120 912
 40.140 888
 40.160 852
 40.180 712
 40.200 681
 40.220 650
 40.240 660
 40.260 665
 40.280 635
 40.300 645
 40.320 665
 40.340 655
 40.360 686
 40.380 635
 40.400 696
 40.420 712
 40.440 729
 40.460 789
 40.480 795
 40.500 906
 40.520 973
 40.540 1115
 40.560 1413
 40.580 1866
 40.600 2450
 40.620 3047
 40.640 3696
 40.660 4160
 40.680 4774
 40.700 5083
 40.720 4914
 40.740 4515
 40.760 3868
 40.780 3294
 40.800 2819
 40.820 2371
 40.840 2025
 40.860 1505
 40.880 1122
 40.900 900
 40.920 681
 40.940 590
 40.960 510
 40.980 510
 41.000 488
 41.020 428
 41.040 436
 41.060 466
 41.080 436
 41.100 428
 41.120 408
 41.140 412
 41.160 400
 41.180 396
 41.200 412
 41.220 392
 41.240 388
 41.260 408
 41.280 361
 41.300 320
 41.320 338
 41.340 345
 41.360 392
 41.380 416
 41.400 384
 41.420 453
 41.440 441
 41.460 466
 41.480 475
 41.500 449
 41.520 492
 41.540 552
 41.560 605
 41.580 605
 41.600 561
 41.620 538
 41.640 595
 41.660 561
 41.680 556
 41.700 547
 41.720 590
 41.740 630
 41.760 610
 41.780 580
 41.800 600
 41.820 547
 41.840 479
 41.860 524
 41.880 501
 41.900 475
 41.920 449
 41.940 420
 41.960 420
 41.980 368
 42.000 388
 42.020 404
 42.040 400
 42.060 412
 42.080 424
 42.100 400
 42.120 400
 42.140 412
 42.160 424
 42.180 416
 42.200 368
 42.220 316
 42.240 353
 42.260 338
 42.280 313
 42.300 327
 42.320 299
 42.340 292
 42.360 349
 42.380 316
 42.400 282
 42.420 289
 42.440 316
 42.460 324
 42.480 327
 42.500 342
 42.520 342
 42.540 384
 42.560 349
 42.580 316
 42.600 372
 42.620 384
 42.640 404
 42.660 420
 42.680 457
 42.700 470
 42.720 484
 42.740 506
 42.760 492
 42.780 515
 42.800 515
 42.820 501
 42.840 506
 42.860 501
 42.880 479
 42.900 466
 42.920 436
 42.940 441
 42.960 420
 42.980 453
 43.000 384
 43.020 372
 43.040 353
 43.060 376
 43.080 345
 43.100 338
 43.120 388
 43.140 349
 43.160 388
 43.180 345
 43.200 372
 43.220 368
 43.240 412
 43.260 384
 43.280 412
 43.300 441
 43.320 484
 43.340 462
 43.360 475
 43.380 524
 43.400 506
 43.420 571
 43.440 566
 43.460 542
 43.480 542
 43.500 533
 43.520 484
 43.540 519
 43.560 501
 43.580 501
 43.600 479
 43.620 492
 43.640 515
 43.660 524
 43.680 561
 43.700 580
 43.720 620
 43.740 681
 43.760 729
 43.780 756
 43.800 756
 43.820 882
 43.840 876
 43.860 1011
 43.880 1102
 43.900 1156
 43.920 1332
 43.940 1513
 43.960 1656
 43.980 1909
 44.000 2152
 44.020 2401
 44.040 2756
 44.060 2862
 44.080 3047
 44.100 2611
 44.120 2199
 44.140 1857
 44.160 1681
 44.180 1552
 44.200 1406
 44.220 1135
 44.240 876
 44.260 691
 44.280 561
 44.300 462
 44.320 441
 44.340 357
 44.360 376
 44.380 368
 44.400 388
 44.420 396
 44.440 353
 44.460 316
 44.480 309
 44.500 342
 44.520 331
 44.540 299
 44.560 309
 44.580 338
 44.600 331
 44.620 313
 44.640 316
 44.660 331
 44.680 327
 44.700 302
 44.720 299
 44.740 309
 44.760 299
 44.780 327
 44.800 292
 44.820 316
 44.840 327
 44.860 309
 44.880 299
 44.900 309
 44.920 292
 44.940 259
 44.960 275
 44.980 334
 45.000 338
 45.020 349
 45.040 309
 45.060 342
 45.080 345
 45.100 349
 45.120 342
 45.140 357
 45.160 376
 45.180 334
 45.200 372
 45.220 345
 45.240 309
 45.260 376
 45.280 349
 45.300 368
 45.320 327
 45.340 302
 45.360 338
 45.380 368
 45.400 320
 45.420 345
 45.440 334
 45.460 349
 45.480 388
 45.500 420
 45.520 445
 45.540 470
 45.560 475
 45.580 470
 45.600 388
 45.620 420
 45.640 361
 45.660 372
 45.680 345
 45.700 338
 45.720 345
 45.740 320
 45.760 285
 45.780 268
 45.800 268
 45.820 309
 45.840 313
 45.860 327
 45.880 306
 45.900 313
 45.920 349
 45.940 420
 45.960 420
 45.980 510
 46.000 542
 46.020 556
 46.040 566
 46.060 580
 46.080 519
 46.100 420
 46.120 388
 46.140 436
 46.160 404
 46.180 388
 46.200 309
 46.220 292
 46.240 320
 46.260 324
 46.280 289
 46.300 295
 46.320 345
 46.340 316
 46.360 384
 46.380 372
 46.400 380
 46.420 345
 46.440 380
 46.460 408
 46.480 392
 46.500 416
 46.520 388
 46.540 338
 46.560 327
 46.580 324
 46.600 357
 46.620 338
 46.640 331
 46.660 345
 46.680 327
 46.700 331
 46.720 338
 46.740 334
 46.760 349
 46.780 368
 46.800 376
 46.820 376
 46.840 404
 46.860 392
 46.880 428
 46.900 432
 46.920 470
 46.940 488
 46.960 506
 46.980 542
 47.000 571
 47.020 580
 47.040 556
 47.060 556
 47.080 566
 47.100 585
 47.120 620
 47.140 635
 47.160 640
 47.180 590
 47.200 635
 47.220 561
 47.240 501
 47.260 501
 47.280 510
 47.300 484
 47.320 506
 47.340 484
 47.360 462
 47.380 400
 47.400 353
 47.420 392
 47.440 372
 47.460 376
 47.480 396
 47.500 388
 47.520 349
 47.540 376
 47.560 416
 47.580 388
 47.600 428
 47.620 428
 47.640 457
 47.660 519
 47.680 470
 47.700 519
 47.720 529
 47.740 538
 47.760 561
 47.780 561
 47.800 556
 47.820 547
 47.840 524
 47.860 484
 47.880 519
 47.900 466
 47.920 462
 47.940 441
 47.960 424
 47.980 424
 48.000 364
 48.020 384
 48.040 404
 48.060 376
 48.080 396
 48.100 424
 48.120 404
 48.140 412
 48.160 449
 48.180 524
 48.200 552
 48.220 600
 48.240 457
 48.260 416
 48.280 380
 48.300 388
 48.320 424
 48.340 376
 48.360 380
 48.380 320
 48.400 275
 48.420 256
 48.440 256
 48.460 285
 48.480 265
 48.500 282
 48.520 292
 48.540 285
 48.560 282
 48.580 285
 48.600 324
 48.620 272
 48.640 275
 48.660 272
 48.680 272
 48.700 265
 48.720 265
 48.740 265
 48.760 272
 48.780 275
 48.800 216
 48.820 256
 48.840 252
 48.860 249
 48.880 272
 48.900 282
 48.920 295
 48.940 313
 48.960 320
 48.980 376
 49.000 372
 49.020 408
 49.040 380
 49.060 384
 49.080 404
 49.100 457
 49.120 441
 49.140 376
 49.160 388
 49.180 388
 49.200 384
 49.220 392
 49.240 420
 49.260 388
 49.280 428
 49.300 457
 49.320 510
 49.340 484
 49.360 466
 49.380 497
 49.400 412
 49.420 388
 49.440 408
 49.460 376
 49.480 376
 49.500 334
 49.520 349
 49.540 289
 49.560 302
 49.580 268
 49.600 275
 49.620 306
 49.640 285
 49.660 282
 49.680 265
 49.700 295
 49.720 327
 49.740 342
 49.760 313
 49.780 331
 49.800 334
 49.820 361
 49.840 368
 49.860 396
 49.880 372
 49.900 376
 49.920 400
 49.940 384
 49.960 368
 49.980 376
 50.000 372
 50.020 364
 50.040 364
 50.060 376
 50.080 320
 50.100 299
 50.120 345
 50.140 327
 50.160 338
 50.180 316
 50.200 309
 50.220 292
 50.240 320
 50.260 331
 50.280 295
 50.300 364
 50.320 349
 50.340 345
 50.360 364
 50.380 361
 50.400 392
 50.420 349
 50.440 357
 50.460 345
 50.480 338
 50.500 364
 50.520 349
 50.540 342
 50.560 327
 50.580 324
 50.600 327
 50.620 357
 50.640 349
 50.660 372
 50.680 334
 50.700 408
 50.720 353
 50.740 342
 50.760 357
 50.780 345
 50.800 327
 50.820 309
 50.840 295
 50.860 309
 50.880 320
 50.900 292
 50.920 272
 50.940 282
 50.960 289
 50.980 249
 51.000 237
 51.020 249
 51.040 240
 51.060 243
 51.080 292
 51.100 302
 51.120 292
 51.140 278
 51.160 285
 51.180 292
 51.200 295
 51.220 268
 51.240 302
 51.260 292
 51.280 282
 51.300 285
 51.320 243
 51.340 249
 51.360 265
 51.380 219
 51.400 278
 51.420 228
 51.440 210
 51.460 228
 51.480 234
 51.500 249
 51.520 252
 51.540 268
 51.560 246
 51.580 246
 51.600 216
 51.620 252
 51.640 213
 51.660 262
 51.680 234
 51.700 246
 51.720 256
 51.740 246
 51.760 237
 51.780 292
 51.800 278
 51.820 295
 51.840 285
 51.860 302
 51.880 372
 51.900 484
 51.920 533
 51.940 580
 51.960 561
 51.980 492
 52.000 449
 52.020 445
 52.040 428
 52.060 428
 52.080 453
 52.100 428
 52.120 380
 52.140 349
 52.160 316
 52.180 272
 52.200 268
 52.220 259
 52.240 272
 52.260 249
 52.280 295
 52.300 278
 52.320 292
 52.340 272
 52.360 275
 52.380 285
 52.400 285
 52.420 302
 52.440 278
 52.460 299
 52.480 292
 52.500 275
 52.520 309
 52.540 292
 52.560 289
 52.580 324
 52.600 309
 52.620 306
 52.640 327
 52.660 338
 52.680 368
 52.700 392
 52.720 424
 52.740 357
 52.760 384
 52.780 408
 52.800 392
 52.820 408
 52.840 396
 52.860 457
 52.880 479
 52.900 475
 52.920 515
 52.940 428
 52.960 392
 52.980 404
 53.000 416
 53.020 380
 53.040 408
 53.060 380
 53.080 380
 53.100 338
 53.120 306
 53.140 295
 53.160 313
 53.180 268
 53.200 299
 53.220 282
 53.240 275
 53.260 285
 53.280 302
 53.300 278
 53.320 275
 53.340 252
 53.360 262
 53.380 278
 53.400 268
 53.420 292
 53.440 282
 53.460 285
 53.480 295
 53.500 278
 53.520 289
 53.540 272
 53.560 299
 53.580 320
 53.600 320
 53.620 349
 53.640 295
 53.660 306
 53.680 334
 53.700 361
 53.720 331
 53.740 384
 53.760 466
 53.780 466
 53.800 492
 53.820 515
 53.840 510
 53.860 576
 53.880 665
 53.900 789
 53.920 882
 53.940 718
 53.960 615
 53.980 556
 54.000 590
 54.020 712
 54.040 734
 54.060 767
 54.080 723
 54.100 576
 54.120 533
 54.140 436
 54.160 457
 54.180 445
 54.200 501
 54.220 432
 54.240 404
 54.260 412
 54.280 345
 54.300 388
 54.320 338
 54.340 331
 54.360 313
 54.380 338
 54.400 388
 54.420 338
 54.440 368
 54.460 392
 54.480 400
 54.500 416
 54.520 392
 54.540 408
 54.560 396
 54.580 420
 54.600 432
 54.620 457
 54.640 457
 54.660 470
 54.680 466
 54.700 436
 54.720 428
 54.740 462
 54.760 368
 54.780 404
 54.800 380
 54.820 376
 54.840 372
 54.860 345
 54.880 309
 54.900 320
 54.920 327
 54.940 285
 54.960 278
 54.980 302
 55.000 331
 55.020 289
 55.040 302
 55.060 259
 55.080 259
 55.100 306
 55.120 272
 55.140 246
 55.160 249
 55.180 268
 55.200 262
 55.220 265
 55.240 295
 55.260 259
 55.280 268
 55.300 292
 55.320 306
 55.340 265
 55.360 265
 55.380 306
 55.400 278
 55.420 282
 55.440 289
 55.460 289
 55.480 302
 55.500 302
 55.520 282
 55.540 272
 55.560 275
 55.580 262
 55.600 237
 55.620 249
 55.640 285
 55.660 278
 55.680 285
 55.700 295
 55.720 313
 55.740 285
 55.760 249
 55.780 252
 55.800 265
 55.820 246
 55.840 246
 55.860 256
 55.880 256
 55.900 256
 55.920 243
 55.940 256
 55.960 265
 55.980 262
 56.000 295
 56.020 246
 56.040 295
 56.060 299
 56.080 292
 56.100 306
 56.120 309
 56.140 327
 56.160 353
 56.180 306
 56.200 380
 56.220 327
 56.240 316
 56.260 349
 56.280 313
 56.300 316
 56.320 282
 56.340 313
 56.360 272
 56.380 256
 56.400 292
 56.420 282
 56.440 275
 56.460 275
 56.480 275
 56.500 246
 56.520 256
 56.540 222
 56.560 207
 56.580 246
 56.600 222
 56.620 234
 56.640 243
 56.660 240
 56.680 275
 56.700 219
 56.720 259
 56.740 259
 56.760 246
 56.780 228
 56.800 252
 56.820 278
 56.840 246
 56.860 268
 56.880 282
 56.900 262
 56.920 256
 56.940 265
 56.960 268
 56.980 256
 57.000 252
 57.020 275
 57.040 299
 57.060 289
 57.080 285
 57.100 278
 57.120 292
 57.140 262
 57.160 249
 57.180 252
 57.200 246
 57.220 268
 57.240 275
 57.260 265
 57.280 231
 57.300 234
 57.320 225
 57.340 228
 57.360 219
 57.380 252
 57.400 262
 57.420 256
 57.440 295
 57.460 282
 57.480 237
 57.500 246
 57.520 222
 57.540 231
 57.560 272
 57.580 292
 57.600 259
 57.620 268
 57.640 243
 57.660 256
 57.680 256
 57.700 243
 57.720 249
 57.740 228
 57.760 225
 57.780 228
 57.800 234
 57.820 243
 57.840 256
 57.860 234
 57.880 216
 57.900 228
 57.920 249
 57.940 231
 57.960 243
 57.980 256
 58.000 237
 58.020 249
 58.040 259
 58.060 237
 58.080 262
 58.100 285
 58.120 262
 58.140 275
 58.160 338
 58.180 282
 58.200 299
 58.220 313
 58.240 316
 58.260 353
 58.280 364
 58.300 353
 58.320 396
 58.340 392
 58.360 353
 58.380 331
 58.400 380
 58.420 368
 58.440 388
 58.460 384
 58.480 384
 58.500 334
 58.520 306
 58.540 313
 58.560 349
 58.580 299
 58.600 327
 58.620 327
 58.640 272
 58.660 246
 58.680 246
 58.700 262
 58.720 222
 58.740 246
 58.760 272
 58.780 262
 58.800 256
 58.820 262
 58.840 278
 58.860 249
 58.880 231
 58.900 216
 58.920 207
 58.940 240
 58.960 249
 58.980 262
 59.000 256
 59.020 237
 59.040 231
 59.060 207
 59.080 201
 59.100 219
 59.120 252
 59.140 243
 59.160 265
 59.180 252
 59.200 219
 59.220 243
 59.240 256
 59.260 262
 59.280 216
 59.300 237
 59.320 268
 59.340 252
 59.360 252
 59.380 234
 59.400 228
 59.420 246
 59.440 216
 59.460 228
 59.480 237
 59.500 237
 59.520 222
 59.540 234
 59.560 222
 59.580 210
 59.600 216
 59.620 231
 59.640 234
 59.660 246
 59.680 240
 59.700 237
 59.720 216
 59.740 219
 59.760 193
 59.780 198
 59.800 219
 59.820 240
 59.840 246
 59.860 213
 59.880 213
 59.900 201
 59.920 201
 59.940 228
 59.960 204
 59.980 196
 60.000 228
 60.020 184
 60.040 198
 60.060 207
 60.080 182
 60.100 225
 60.120 219
 60.140 228
 60.160 219
 60.180 219
 60.200 225
 60.220 240
 60.240 213
 60.260 228
 60.280 231
 60.300 204
 60.320 201
 60.340 243
 60.360 231
 60.380 231
 60.400 256
 60.420 246
 60.440 240
 60.460 243
 60.480 228
 60.500 240
 60.520 243
 60.540 268
 60.560 275
 60.580 282
 60.600 249
 60.620 282
 60.640 295
 60.660 275
 60.680 292
 60.700 272
 60.720 285
 60.740 285
 60.760 282
 60.780 306
 60.800 285
 60.820 262
 60.840 275
 60.860 289
 60.880 262
 60.900 285
 60.920 262
 60.940 313
 60.960 299
 60.980 289
 61.000 309
 61.020 289
 61.040 320
 61.060 334
 61.080 334
 61.100 324
 61.120 316
 61.140 334
 61.160 338
 61.180 331
 61.200 295
 61.220 299
 61.240 320
 61.260 272
 61.280 256
 61.300 306
 61.320 295
 61.340 302
 61.360 282
 61.380 320
 61.400 285
 61.420 272
 61.440 316
 61.460 285
 61.480 349
 61.500 349
 61.520 316
 61.540 295
 61.560 278
 61.580 278
 61.600 252
 61.620 246
 61.640 237
 61.660 285
 61.680 243
 61.700 252
 61.720 228
 61.740 222
 61.760 201
 61.780 210
 61.800 201
 61.820 219
 61.840 193
 61.860 198
 61.880 187
 61.900 216
 61.920 193
 61.940 234
 61.960 213
 61.980 216
 62.000 210
 62.020 193
 62.040 174
 62.060 198
 62.080 216
 62.100 198
 62.120 225
 62.140 193
 62.160 196
 62.180 193
 62.200 196
 62.220 184
 62.240 228
 62.260 216
 62.280 240
 62.300 234
 62.320 231
 62.340 210
 62.360 231
 62.380 201
 62.400 231
 62.420 198
 62.440 231
 62.460 225
 62.480 193
 62.500 228
 62.520 228
 62.540 225
 62.560 207
 62.580 228
 62.600 237
 62.620 231
 62.640 222
 62.660 243
 62.680 243
 62.700 265
 62.720 278
 62.740 268
 62.760 262
 62.780 265
 62.800 259
 62.820 285
 62.840 309
 62.860 275
 62.880 268
 62.900 262
 62.920 262
 62.940 259
 62.960 243
 62.980 222
 63.000 222
 63.020 219
 63.040 237
 63.060 193
 63.080 207
 63.100 190
 63.120 216
 63.140 210
 63.160 190
 63.180 213
 63.200 216
 63.220 219
 63.240 207
 63.260 196
 63.280 237
 63.300 210
 63.320 237
 63.340 240
 63.360 219
 63.380 243
 63.400 275
 63.420 272
 63.440 313
 63.460 295
 63.480 306
 63.500 345
 63.520 302
 63.540 282
 63.560 299
 63.580 299
 63.600 299
 63.620 275
 63.640 316
 63.660 299
 63.680 302
 63.700 289
 63.720 262
 63.740 256
 63.760 249
 63.780 289
 63.800 262
 63.820 246
 63.840 275
 63.860 243
 63.880 262
 63.900 327
 63.920 327
 63.940 342
 63.960 388
 63.980 353
 64.000 282
 64.020 306
 64.040 252
 64.060 282
 64.080 225
 64.100 268
 64.120 306
 64.140 272
 64.160 282
 64.180 249
 64.200 231
 64.220 231
 64.240 228
 64.260 216
 64.280 207
 64.300 219
 64.320 222
 64.340 201
 64.360 204
 64.380 190
 64.400 176
 64.420 222
 64.440 240
 64.460 187
 64.480 193
 64.500 193
 64.520 187
 64.540 182
 64.560 184
 64.580 196
 64.600 228
 64.620 201
 64.640 213
 64.660 201
 64.680 184
 64.700 201
 64.720 187
 64.740 182
 64.760 176
 64.780 219
 64.800 201
 64.820 187
 64.840 207
 64.860 213
 64.880 222
 64.900 228
 64.920 184
 64.940 210
 64.960 201
 64.980 213
 65.000 213
 65.020 228
 65.040 216
 65.060 228
 65.080 213
 65.100 219
 65.120 237
 65.140 246
 65.160 275
 65.180 289
 65.200 278
 65.220 249
 65.240 256
 65.260 240
 65.280 285
 65.300 282
 65.320 306
 65.340 334
 65.360 327
 65.380 345
 65.400 342
 65.420 299
 65.440 299
 65.460 302
 65.480 306
 65.500 306
 65.520 302
 65.540 306
 65.560 313
 65.580 331
 65.600 268
 65.620 275
 65.640 256
 65.660 320
 65.680 306
 65.700 278
 65.720 262
 65.740 292
 65.760 237
 65.780 265
 65.800 278
 65.820 292
 65.840 262
 65.860 282
 65.880 306
 65.900 285
 65.920 320
 65.940 320
 65.960 272
 65.980 316
 66.000 285
 66.020 292
 66.040 278
 66.060 285
 66.080 292
 66.100 331
 66.120 364
 66.140 345
 66.160 349
 66.180 361
 66.200 313
 66.220 327
 66.240 324
 66.260 349
 66.280 357
 66.300 320
 66.320 384
 66.340 338
 66.360 404
 66.380 345
 66.400 364
 66.420 400
 66.440 388
 66.460 392
 66.480 404
 66.500 353
 66.520 342
 66.540 289
 66.560 320
 66.580 299
 66.600 320
 66.620 316
 66.640 334
 66.660 345
 66.680 309
 66.700 278
 66.720 282
 66.740 210
 66.760 225
 66.780 207
 66.800 252
 66.820 234
 66.840 249
 66.860 216
 66.880 222
 66.900 204
 66.920 213
 66.940 207
 66.960 228
 66.980 216
 67.000 207
 67.020 190
 67.040 210
 67.060 207
 67.080 179
 67.100 204
 67.120 193
 67.140 198
 67.160 198
 67.180 210
 67.200 207
 67.220 225
 67.240 213
 67.260 198
 67.280 179
 67.300 184
 67.320 179
 67.340 184
 67.360 184
 67.380 207
 67.400 179
 67.420 225
 67.440 190
 67.460 187
 67.480 187
 67.500 196
 67.520 201
 67.540 216
 67.560 237
 67.580 246
 67.600 252
 67.620 275
 67.640 292
 67.660 299
 67.680 265
 67.700 234
 67.720 234
 67.740 225
 67.760 207
 67.780 207
 67.800 246
 67.820 201
 67.840 228
 67.860 228
 67.880 234
 67.900 201
 67.920 196
 67.940 184
 67.960 187
 67.980 182
 68.000 193
 68.020 187
 68.040 156
 68.060 171
 68.080 196
 68.100 190
 68.120 161
 68.140 196
 68.160 196
 68.180 174
 68.200 182
 68.220 182
 68.240 182
 68.260 198
 68.280 169
 68.300 182
 68.320 174
 68.340 198
 68.360 187
 68.380 196
 68.400 198
 68.420 204
 68.440 179
 68.460 187
 68.480 204
 68.500 198
 68.520 198
 68.540 219
 68.560 219
 68.580 198
 68.600 182
 68.620 193
 68.640 204
 68.660 171
 68.680 161
 68.700 198
 68.720 198
 68.740 176
 68.760 213
 68.780 184
 68.800 184
 68.820 179
 68.840 193
 68.860 196
 68.880 198
 68.900 210
 68.920 204
 68.940 207
 68.960 222
 68.980 196
 69.000 213
 69.020 216
 69.040 216
 69.060 225
 69.080 222
 69.100 256
 69.120 237
 69.140 246
 69.160 222
 69.180 234
 69.200 231
 69.220 222
 69.240 213
 69.260 222
 69.280 240
 69.300 213
 69.320 207
 69.340 231
 69.360 222
 69.380 184
 69.400 222
 69.420 225
 69.440 216
 69.460 182
 69.480 182
 69.500 210
 69.520 184
 69.540 182
 69.560 184
 69.580 184
 69.600 193
 69.620 193
 69.640 187
 69.660 176
 69.680 174
 69.700 210
 69.720 184
 69.740 187
 69.760 201
 69.780 216
 69.800 190
 69.820 196
 69.840 176
 69.860 169
 69.880 201
 69.900 201
 69.920 207
 69.940 184
 69.960 198
 69.980 234
 70.000 228
 70.020 246
 70.040 252
 70.060 237
 70.080 237
 70.100 237
 70.120 225
 70.140 249
 70.160 252
 70.180 282
 70.200 272
 70.220 249
 70.240 213
 70.260 222
 70.280 201
 70.300 210
 70.320 196
 70.340 210
 70.360 222
 70.380 222
 70.400 219
 70.420 210
 70.440 198
 70.460 219
 70.480 231
 70.500 207
 70.520 219
 70.540 225
 70.560 243
 70.580 234
 70.600 246
 70.620 256
 70.640 234
 70.660 234
 70.680 268
 70.700 292
 70.720 299
 70.740 292
 70.760 302
 70.780 338
 70.800 302
 70.820 313
 70.840 275
 70.860 259
 70.880 256
 70.900 256
 70.920 246
 70.940 262
 70.960 222
 70.980 243
 71.000 246
 71.020 210
 71.040 198
 71.060 213
 71.080 207
 71.100 207
 71.120 182
 71.140 171
 71.160 213
 71.180 187
 71.200 198
 71.220 210
 71.240 184
 71.260 198
 71.280 187
 71.300 207
 71.320 201
 71.340 169
 71.360 184
 71.380 163
 71.400 196
 71.420 198
 71.440 198
 71.460 176
 71.480 196
 71.500 174
 71.520 210
 71.540 198
 71.560 169
 71.580 201
 71.600 198
 71.620 171
 71.640 179
 71.660 163
 71.680 176
 71.700 196
 71.720 156
 71.740 156
 71.760 184
 71.780 161
 71.800 179
 71.820 174
 71.840 163
 71.860 169
 71.880 190
 71.900 163
 71.920 166
 71.940 204
 71.960 210
 71.980 182
 72.000 207
 72.020 198
 72.040 187
 72.060 198
 72.080 207
 72.100 207
 72.120 184
 72.140 213
 72.160 219
 72.180 222
 72.200 231
 72.220 216
 72.240 182
 72.260 187
 72.280 190
 72.300 190
 72.320 222
 72.340 216
 72.360 207
 72.380 219
 72.400 216
 72.420 225
 72.440 216
 72.460 190
 72.480 182
 72.500 193
 72.520 198
 72.540 182
 72.560 184
 72.580 187
 72.600 176
 72.620 190
 72.640 187
 72.660 190
 72.680 193
 72.700 204
 72.720 196
 72.740 196
 72.760 213
 72.780 210
 72.800 198
 72.820 176
 72.840 174
 72.860 176
 72.880 187
 72.900 201
 72.920 174
 72.940 184
 72.960 190
 72.980 196
 73.000 198
 73.020 182
 73.040 204
 73.060 166
 73.080 163
 73.100 169
 73.120 174
 73.140 198
 73.160 187
 73.180 179
 73.200 193
 73.220 187
 73.240 171
 73.260 210
 73.280 198
 73.300 190
 73.320 182
 73.340 196
 73.360 187
 73.380 174
 73.400 193
 73.420 225
 73.440 193
 73.460 210
 73.480 213
 73.500 196
 73.520 207
 73.540 234
 73.560 201
 73.580 216
 73.600 228
 73.620 201
 73.640 225
 73.660 190
 73.680 193
 73.700 228
 73.720 210
 73.740 234
 73.760 201
 73.780 196
 73.800 198
 73.820 176
 73.840 184
 73.860 207
 73.880 179
 73.900 198
 73.920 153
 73.940 184
 73.960 174
 73.980 153
 74.000 196
 74.020 174
 74.040 153
 74.060 176
 74.080 174
 74.100 163
 74.120 176
 74.140 182
 74.160 163
 74.180 174
 74.200 153
 74.220 163
 74.240 171
 74.260 163
 74.280 174
 74.300 158
 74.320 166
 74.340 139
 74.360 156
 74.380 198
 74.400 184
 74.420 207
 74.440 198
 74.460 231
 74.480 201
 74.500 184
 74.520 156
 74.540 201
 74.560 176
 74.580 166
 74.600 182
 74.620 182
 74.640 179
 74.660 201
 74.680 196
 74.700 225
 74.720 225
 74.740 222
 74.760 198
 74.780 184
 74.800 198
 74.820 204
 74.840 196
 74.860 201
 74.880 196
 74.900 201
 74.920 213
 74.940 231
 74.960 228
 74.980 222
 75.000 240
 75.020 213
 75.040 231
 75.060 222
 75.080 219
 75.100 237
 75.120 234
 75.140 201
 75.160 222
 75.180 201
 75.200 198
 75.220 204
 75.240 243
 75.260 228
 75.280 204
 75.300 196
 75.320 210
 75.340 213
 75.360 216
 75.380 231
 75.400 207
 75.420 187
 75.440 204
 75.460 174
 75.480 228
 75.500 222
 75.520 213
 75.540 210
 75.560 198
 75.580 196
 75.600 216
 75.620 198
 75.640 213
 75.660 201
 75.680 196
 75.700 187
 75.720 184
 75.740 210
 75.760 198
 75.780 207
 75.800 198
 75.820 222
 75.840 219
 75.860 213
 75.880 225
 75.900 259
 75.920 249
 75.940 249
 75.960 246
 75.980 228
 76.000 246
 76.020 207
 76.040 182
 76.060 184
 76.080 207
 76.100 198
 76.120 219
 76.140 219
 76.160 231
 76.180 240
 76.200 198
 76.220 234
 76.240 204
 76.260 187
 76.280 187
 76.300 187
 76.320 190
 76.340 148
 76.360 182
 76.380 219
 76.400 184
 76.420 207
 76.440 207
 76.460 184
 76.480 210
 76.500 193
 76.520 196
 76.540 225
 76.560 216
 76.580 228
 76.600 234
 76.620 207
 76.640 213
 76.660 204
 76.680 210
 76.700 198
 76.720 207
 76.740 210
 76.760 198
 76.780 207
 76.800 207
 76.820 225
 76.840 204
 76.860 201
 76.880 190
 76.900 184
 76.920 190
 76.940 187
 76.960 216
 76.980 174
 77.000 207
 77.020 182
 77.040 193
 77.060 176
 77.080 190
 77.100 184
 77.120 184
 77.140 184
 77.160 176
 77.180 158
 77.200 163
 77.220 187
 77.240 196
 77.260 174
 77.280 163
 77.300 176
 77.320 179
 77.340 148
 77.360 171
 77.380 184
 77.400 176
 77.420 196
 77.440 196
 77.460 171
 77.480 176
 77.500 158
 77.520 179
 77.540 201
 77.560 190
 77.580 176
 77.600 210
 77.620 225
 77.640 222
 77.660 222
 77.680 252
 77.700 234
 77.720 228
 77.740 216
 77.760 240
 77.780 228
 77.800 222
 77.820 210
 77.840 213
 77.860 219
 77.880 219
 77.900 216
 77.920 228
 77.940 231
 77.960 228
 77.980 240
 78.000 225
 78.020 198
 78.040 184
 78.060 216
 78.080 201
 78.100 204
 78.120 201
 78.140 222
 78.160 219
 78.180 222
 78.200 198
 78.220 196
 78.240 204
 78.260 198
 78.280 187
 78.300 225
 78.320 213
 78.340 182
 78.360 196
 78.380 158
 78.400 182
 78.420 176
 78.440 196
 78.460 190
 78.480 174
 78.500 184
 78.520 182
 78.540 174
 78.560 156
 78.580 190
 78.600 174
 78.620 187
 78.640 196
 78.660 174
 78.680 169
 78.700 182
 78.720 176
 78.740 174
 78.760 184
 78.780 171
 78.800 216
 78.820 204
 78.840 179
 78.860 153
 78.880 169
 78.900 176
 78.920 184
 78.940 176
 78.960 184
 78.980 166
 79.000 171
 79.020 176
 79.040 213
 79.060 204
 79.080 198
 79.100 187
 79.120 196
 79.140 182
 79.160 193
 79.180 201
 79.200 187
 79.220 193
 79.240 213
 79.260 201
 79.280 171
 79.300 234
 79.320 201
 79.340 207
 79.360 201
 79.380 187
 79.400 190
 79.420 184
 79.440 198
 79.460 190
 79.480 201
 79.500 198
 79.520 207
 79.540 204
 79.560 262
 79.580 225
 79.600 228
 79.620 222
 79.640 234
 79.660 190
 79.680 216
 79.700 213
 79.720 222
 79.740 216
 79.760 213
 79.780 201
 79.800 219
 79.820 210
 79.840 210
 79.860 222
 79.880 225
 79.900 198
 79.920 184
 79.940 193
 79.960 216
 79.980 174
 80.000 198
 80.020 207
 80.040 176
 80.060 179
 80.080 207
 80.100 213
 80.120 204
 80.140 213
 80.160 210
 80.180 225
 80.200 187
 80.220 182
 80.240 228
 80.260 259
 80.280 302
 80.300 353
 80.320 357
 80.340 309
 80.360 216
 80.380 207
 80.400 246
 80.420 219
 80.440 234
 80.460 225
 80.480 182
 80.500 210
 80.520 252
 80.540 249
 80.560 259
 80.580 237
 80.600 222
 80.620 201
 80.640 231
 80.660 182
 80.680 171
 80.700 169
 80.720 198
 80.740 163
 80.760 166
 80.780 148
 80.800 174
 80.820 153
 80.840 148
 80.860 169
 80.880 163
 80.900 166
 80.920 148
 80.940 182
 80.960 174
 80.980 174
 81.000 184
 81.020 179
 81.040 187
 81.060 146
 81.080 163
 81.100 166
 81.120 151
 81.140 136
 81.160 153
 81.180 158
 81.200 156
 81.220 169
 81.240 158
 81.260 174
 81.280 153
 81.300 153
 81.320 171
 81.340 174
 81.360 144
 81.380 182
 81.400 163
 81.420 163
 81.440 153
 81.460 171
 81.480 136
 81.500 158
 81.520 166
 81.540 129
 81.560 153
 81.580 156
 81.600 161
 81.620 176
 81.640 158
 81.660 136
 81.680 144
 81.700 153
 81.720 182
 81.740 132
 81.760 176
 81.780 166
 81.800 176
 81.820 174
 81.840 187
 81.860 174
 81.880 166
 81.900 158
 81.920 166
 81.940 163
 81.960 158
 81.980 158
 82.000 169
 82.020 161
 82.040 179
 82.060 179
 82.080 169
 82.100 158
 82.120 169
 82.140 174
 82.160 169
 82.180 198
 82.200 207
 82.220 174
 82.240 196
 82.260 196
 82.280 190
 82.300 193
 82.320 171
 82.340 187
 82.360 169
 82.380 210
 82.400 216
 82.420 198
 82.440 193
 82.460 204
 82.480 207
 82.500 201
 82.520 201
 82.540 207
 82.560 225
 82.580 231
 82.600 216
 82.620 234
 82.640 225
 82.660 219
 82.680 201
 82.700 219
 82.720 225
 82.740 213
 82.760 216
 82.780 182
 82.800 169
 82.820 201
 82.840 201
 82.860 210
 82.880 179
 82.900 179
 82.920 190
 82.940 182
 82.960 198
 82.980 187
 83.000 222
 83.020 179
 83.040 169
 83.060 187
 83.080 182
 83.100 201
 83.120 176
 83.140 163
 83.160 182
 83.180 184
 83.200 182
 83.220 198
 83.240 222
 83.260 213
 83.280 207
 83.300 174
 83.320 210
 83.340 222
 83.360 201
 83.380 193
 83.400 182
 83.420 201
 83.440 228
 83.460 193
 83.480 201
 83.500 161
 83.520 207
 83.540 216
 83.560 265
 83.580 262
 83.600 252
 83.620 243
 83.640 213
 83.660 166
 83.680 207
 83.700 176
 83.720 174
 83.740 156
 83.760 176
 83.780 158
 83.800 201
 83.820 204
 83.840 219
 83.860 176
 83.880 174
 83.900 169
 83.920 158
 83.940 146
 83.960 174
 83.980 153
 84.000 169
 84.020 163
 84.040 184
 84.060 136
 84.080 171
 84.100 134
 84.120 158
 84.140 163
 84.160 148
 84.180 163
 84.200 163
 84.220 174
 84.240 163
 84.260 144
 84.280 179
 84.300 182
 84.320 174
 84.340 176
 84.360 153
 84.380 198
 84.400 148
 84.420 184
 84.440 158
 84.460 182
 84.480 182
 84.500 179
 84.520 184
 84.540 176
 84.560 166
 84.580 161
 84.600 187
 84.620 166
 84.640 190
 84.660 158
 84.680 174
 84.700 163
 84.720 190
 84.740 171
 84.760 174
 84.780 176
 84.800 153
 84.820 163
 84.840 153
 84.860 148
 84.880 163
 84.900 179
 84.920 169
 84.940 169
 84.960 153
 84.980 174
 85.000 153
 85.020 171
 85.040 161
 85.060 176
 85.080 176
 85.100 148
 85.120 156
 85.140 171
 85.160 171
 85.180 158
 85.200 169
 85.220 182
 85.240 166
 85.260 198
 85.280 182
 85.300 148
 85.320 193
 85.340 174
 85.360 174
 85.380 201
 85.400 179
 85.420 193
 85.440 184
 85.460 153
 85.480 190
 85.500 169
 85.520 166
 85.540 193
 85.560 176
 85.580 166
 85.600 190
 85.620 179
 85.640 174
 85.660 171
 85.680 169
 85.700 171
 85.720 158
 85.740 163
 85.760 153
 85.780 144
 85.800 179
 85.820 166
 85.840 179
 85.860 171
 85.880 196
 85.900 148
 85.920 187
 85.940 148
 85.960 201
 85.980 174
 86.000 171
 86.020 182
 86.040 184
 86.060 169
 86.080 163
 86.100 163
 86.120 187
 86.140 182
 86.160 169
 86.180 169
 86.200 169
 86.220 179
 86.240 166
 86.260 158
 86.280 161
 86.300 166
 86.320 169
 86.340 156
 86.360 166
 86.380 156
 86.400 158
 86.420 148
 86.440 169
 86.460 174
 86.480 148
 86.500 158
 86.520 163
 86.540 163
 86.560 161
 86.580 153
 86.600 146
 86.620 146
 86.640 161
 86.660 161
 86.680 174
 86.700 169
 86.720 153
 86.740 169
 86.760 171
 86.780 176
 86.800 174
 86.820 204
 86.840 193
 86.860 213
 86.880 174
 86.900 184
 86.920 179
 86.940 176
 86.960 174
 86.980 171
 87.000 174
 87.020 158
 87.040 176
 87.060 156
 87.080 156
 87.100 184
 87.120 187
 87.140 163
 87.160 187
 87.180 161
 87.200 174
 87.220 148
 87.240 151
 87.260 176
 87.280 161
 87.300 190
 87.320 153
 87.340 176
 87.360 163
 87.380 187
 87.400 182
 87.420 182
 87.440 176
 87.460 198
 87.480 184
 87.500 158
 87.520 171
 87.540 169
 87.560 174
 87.580 163
 87.600 174
 87.620 174
 87.640 174
 87.660 166
 87.680 174
 87.700 169
 87.720 174
 87.740 158
 87.760 176
 87.780 171
 87.800 161
 87.820 163
 87.840 161
 87.860 139
 87.880 161
 87.900 144
 87.920 132
 87.940 153
 87.960 169
 87.980 153
 88.000 144
 88.020 144
 88.040 148
 88.060 158
 88.080 156
 88.100 146
 88.120 158
 88.140 153
 88.160 144
 88.180 161
 88.200 161
 88.220 153
 88.240 163
 88.260 153
 88.280 171
 88.300 163
 88.320 144
 88.340 163
 88.360 169
 88.380 158
 88.400 144
 88.420 141
 88.440 125
 88.460 158
 88.480 176
 88.500 144
 88.520 144
 88.540 148
 88.560 153
 88.580 144
 88.600 151
 88.620 148
 88.640 158
 88.660 187
 88.680 179
 88.700 169
 88.720 153
 88.740 166
 88.760 187
 88.780 176
 88.800 166
 88.820 163
 88.840 144
 88.860 158
 88.880 166
 88.900 158
 88.920 156
 88.940 169
 88.960 171
 88.980 144
 89.000 176
 89.020 146
 89.040 146
 89.060 182
 89.080 169
 89.100 144
 89.120 144
 89.140 127
 89.160 146
 89.180 190
 89.200 153
 89.220 156
 89.240 136
 89.260 163
 89.280 153
 89.300 187
 89.320 156
 89.340 163
 89.360 153
 89.380 146
 89.400 148
 89.420 156
 89.440 163
 89.460 169
 89.480 169
 89.500 174
 89.520 136
 89.540 153
 89.560 196
 89.580 171
 89.600 190
 89.620 171
 89.640 156
 89.660 153
 89.680 158
 89.700 163
 89.720 169
 89.740 163
 89.760 151
 89.780 169
 89.800 148
 89.820 171
 89.840 169
 89.860 161
 89.880 171
 89.900 151
 89.920 146
 89.940 166
 89.960 153
 89.980 184
 90.000 141
 90.020 169
 90.040 158
 90.060 148
 90.080 166
 90.100 146
 90.120 129
 90.140 136
 90.160 166
 90.180 156
 90.200 176
 90.220 141
 90.240 163
 90.260 151
 90.280 151
 90.300 151
 90.320 144
 90.340 161
 90.360 141
 90.380 158
 90.400 136
 90.420 151
 90.440 153
 90.460 153
 90.480 148
 90.500 136
 90.520 136
 90.540 129
 90.560 166
 90.580 174
 90.600 184
 90.620 169
 90.640 153
 90.660 163
 90.680 174
 90.700 176
 90.720 161
 90.740 179
 90.760 151
 90.780 148
 90.800 169
 90.820 166
 90.840 174
 90.860 151
 90.880 163
 90.900 163
 90.920 169
 90.940 182
 90.960 156
 90.980 156
 91.000 158
 91.020 166
 91.040 148
 91.060 169
 91.080 153
 91.100 141
 91.120 148
 91.140 148
 91.160 132
 91.180 158
 91.200 146
 91.220 132
 91.240 139
 91.260 134
 91.280 148
 91.300 153
 91.320 144
 91.340 153
 91.360 148
 91.380 158
 91.400 156
 91.420 144
 91.440 129
 91.460 141
 91.480 139
 91.500 169
 91.520 158
 91.540 141
 91.560 144
 91.580 153
 91.600 158
 91.620 158
 91.640 151
 91.660 179
 91.680 158
 91.700 153
 91.720 144
 91.740 151
 91.760 151
 91.780 151
 91.800 136
 91.820 136
 91.840 153
 91.860 174
 91.880 153
 91.900 163
 91.920 158
 91.940 151
 91.960 144
 91.980 148
 92.000 161
 92.020 141
 92.040 144
 92.060 136
 92.080 144
 92.100 151
 92.120 129
 92.140 118
 92.160 129
 92.180 136
 92.200 127
 92.220 141
 92.240 123
 92.260 148
 92.280 146
 92.300 132
 92.320 129
 92.340 121
 92.360 141
 92.380 136
 92.400 141
 92.420 136
 92.440 144
 92.460 153
 92.480 129
 92.500 136
 92.520 121
 92.540 110
 92.560 148
 92.580 158
 92.600 136
 92.620 123
 92.640 132
 92.660 139
 92.680 134
 92.700 148
 92.720 141
 92.740 139
 92.760 151
 92.780 146
 92.800 139
 92.820 136
 92.840 132
 92.860 148
 92.880 132
 92.900 136
 92.920 129
 92.940 169
 92.960 158
 92.980 184
 93.000 148
 93.020 136
 93.040 129
 93.060 151
 93.080 141
 93.100 166
 93.120 148
 93.140 144
 93.160 153
 93.180 144
 93.200 153
 93.220 163
 93.240 153
 93.260 153
 93.280 144
 93.300 166
 93.320 146
 93.340 169
 93.360 146
 93.380 144
 93.400 161
 93.420 139
 93.440 141
 93.460 153
 93.480 136
 93.500 166
 93.520 169
 93.540 163
 93.560 148
 93.580 144
 93.600 158
 93.620 156
 93.640 174
 93.660 174
 93.680 148
 93.700 158
 93.720 166
 93.740 156
 93.760 158
 93.780 163
 93.800 158
 93.820 156
 93.840 141
 93.860 207
 93.880 161
 93.900 158
 93.920 161
 93.940 153
 93.960 169
 93.980 163
 94.000 174
 94.020 153
 94.040 153
 94.060 169
 94.080 158
 94.100 182
 94.120 176
 94.140 182
 94.160 169
 94.180 148
 94.200 153
 94.220 148
 94.240 158
 94.260 153
 94.280 153
 94.300 153
 94.320 176
 94.340 169
 94.360 169
 94.380 151
 94.400 146
 94.420 158
 94.440 148
 94.460 146
 94.480 158
 94.500 176
 94.520 163
 94.540 153
 94.560 169
 94.580 166
 94.600 153
 94.620 134
 94.640 136
 94.660 139
 94.680 151
 94.700 161
 94.720 151
 94.740 153
 94.760 127
 94.780 144
 94.800 136
 94.820 153
 94.840 148
 94.860 136
 94.880 153
 94.900 179
 94.920 144
 94.940 153
 94.960 158
 94.980 141
 95.000 156
 95.020 127
 95.040 158
 95.060 161
 95.080 153
 95.100 151
 95.120 156
 95.140 148
 95.160 148
 95.180 148
 95.200 144
 95.220 136
 95.240 146
 95.260 146
 95.280 151
 95.300 151
 95.320 141
 95.340 163
 95.360 144
 95.380 144
 95.400 144
 95.420 148
 95.440 161
 95.460 139
 95.480 141
 95.500 151
 95.520 132
 95.540 136
 95.560 129
 95.580 148
 95.600 114
 95.620 127
 95.640 127
 95.660 163
 95.680 132
 95.700 136
 95.720 123
 95.740 141
 95.760 134
 95.780 144
 95.800 146
 95.820 136
 95.840 151
 95.860 156
 95.880 148
 95.900 171
 95.920 163
 95.940 156
 95.960 148
 95.980 132
 96.000 136
 96.020 134
 96.040 153
 96.060 139
 96.080 158
 96.100 141
 96.120 158
 96.140 174
 96.160 171
 96.180 174
 96.200 163
 96.220 190
 96.240 190
 96.260 207
 96.280 182
 96.300 153
 96.320 148
 96.340 141
 96.360 153
 96.380 148
 96.400 163
 96.420 158
 96.440 184
 96.460 156
 96.480 158
 96.500 174
 96.520 156
 96.540 153
 96.560 153
 96.580 146
 96.600 163
 96.620 134
 96.640 158
 96.660 139
 96.680 158
 96.700 127
 96.720 127
 96.740 146
 96.760 134
 96.780 146
 96.800 139
 96.820 123
 96.840 153
 96.860 139
 96.880 118
 96.900 136
 96.920 141
 96.940 134
 96.960 134
 96.980 141
 97.000 127
 97.020 144
 97.040 153
 97.060 123
 97.080 121
 97.100 132
 97.120 123
 97.140 129
 97.160 123
 97.180 114
 97.200 144
 97.220 121
 97.240 129
 97.260 148
 97.280 125
 97.300 127
 97.320 153
 97.340 144
 97.360 144
 97.380 121
 97.400 144
 97.420 129
 97.440 129
 97.460 151
 97.480 129
 97.500 114
 97.520 132
 97.540 129
 97.560 141
 97.580 153
 97.600 146
 97.620 132
 97.640 144
 97.660 121
 97.680 139
 97.700 123
 97.720 141
 97.740 148
 97.760 144
 97.780 156
 97.800 161
 97.820 169
 97.840 153
 97.860 179
 97.880 153
 97.900 125
 97.920 158
 97.940 153
 97.960 134
 97.980 129
 98.000 148
 98.020 121
 98.040 144
 98.060 129
 98.080 146
 98.100 139
 98.120 146
 98.140 151
 98.160 153
 98.180 139
 98.200 139
 98.220 148
 98.240 141
 98.260 118
 98.280 129
 98.300 136
 98.320 129
 98.340 123
 98.360 127
 98.380 123
 98.400 121
 98.420 129
 98.440 136
 98.460 136
 98.480 148
 98.500 139
 98.520 148
 98.540 139
 98.560 129
 98.580 136
 98.600 144
 98.620 116
 98.640 136
 98.660 129
 98.680 136
 98.700 121
 98.720 151
 98.740 132
 98.760 123
 98.780 136
 98.800 127
 98.820 146
 98.840 136
 98.860 148
 98.880 136
 98.900 132
 98.920 144
 98.940 136
 98.960 129
 98.980 141
 99.000 134
 99.020 141
 99.040 123
 99.060 127
 99.080 148
 99.100 134
 99.120 125
 99.140 148
 99.160 136
 99.180 125
 99.200 118
 99.220 129
 99.240 141
 99.260 129
 99.280 146
 99.300 127
 99.320 136
 99.340 125
 99.360 132
 99.380 118
 99.400 136
 99.420 144
 99.440 118
 99.460 129
 99.480 134
 99.500 118
 99.520 116
 99.540 125
 99.560 132
 99.580 129
 99.600 121
 99.620 134
 99.640 125
 99.660 114
 99.680 127
 99.700 139
 99.720 121
 99.740 118
 99.760 116
 99.780 125
 99.800 127
 99.820 118
 99.840 125
 99.860 127
 99.880 136
 99.900 125
 99.920 132
 99.940 114
 99.960 116
 99.980 129
100.000 141
