  5.000 392
  5.020 392
  5.040 361
  5.060 412
  5.080 388
  5.100 380
  5.120 353
  5.140 408
  5.160 400
  5.180 412
  5.200 372
  5.220 396
  5.240 396
  5.260 400
  5.280 380
  5.300 388
  5.320 432
  5.340 432
  5.360 364
  5.380 441
  5.400 416
  5.420 420
  5.440 376
  5.460 388
  5.480 420
  5.500 424
  5.520 462
  5.540 416
  5.560 416
  5.580 420
  5.600 436
  5.620 420
  5.640 416
  5.660 408
  5.680 416
  5.700 392
  5.720 412
  5.740 416
  5.760 404
  5.780 420
  5.800 462
  5.820 466
  5.840 432
  5.860 408
  5.880 424
  5.900 453
  5.920 449
  5.940 408
  5.960 412
  5.980 457
  6.000 400
  6.020 436
  6.040 416
  6.060 453
  6.080 432
  6.100 412
  6.120 436
  6.140 428
  6.160 457
  6.180 428
  6.200 428
  6.220 453
  6.240 424
  6.260 424
  6.280 441
  6.300 470
  6.320 453
  6.340 449
  6.360 445
  6.380 436
  6.400 492
  6.420 488
  6.440 484
  6.460 424
  6.480 470
  6.500 488
  6.520 449
  6.540 488
  6.560 479
  6.580 441
  6.600 475
  6.620 466
  6.640 475
  6.660 484
  6.680 484
  6.700 501
  6.720 488
  6.740 519
  6.760 501
  6.780 475
  6.800 441
  6.820 470
  6.840 462
  6.860 479
  6.880 524
  6.900 475
  6.920 488
  6.940 519
  6.960 501
  6.980 533
  7.000 510
  7.020 488
  7.040 475
  7.060 484
  7.080 497
  7.100 492
  7.120 501
  7.140 547
  7.160 492
  7.180 515
  7.200 488
  7.220 510
  7.240 576
  7.260 497
  7.280 547
  7.300 515
  7.320 538
  7.340 552
  7.360 571
  7.380 515
  7.400 538
  7.420 547
  7.440 538
  7.460 556
  7.480 510
  7.500 542
  7.520 576
  7.540 533
  7.560 595
  7.580 547
  7.600 556
  7.620 547
  7.640 552
  7.660 533
  7.680 515
  7.700 538
  7.720 571
  7.740 580
  7.760 590
  7.780 571
  7.800 585
  7.820 561
  7.840 542
  7.860 547
  7.880 566
  7.900 571
  7.920 561
  7.940 576
  7.960 561
  7.980 590
  8.000 533
  8.020 542
  8.040 580
  8.060 580
  8.080 552
  8.100 640
  8.120 542
  8.140 576
  8.160 590
  8.180 538
  8.200 571
  8.220 605
  8.240 585
  8.260 605
  8.280 590
  8.300 566
  8.320 533
  8.340 561
  8.360 615
  8.380 620
  8.400 542
  8.420 576
  8.440 610
  8.460 590
  8.480 600
  8.500 590
  8.520 635
  8.540 576
  8.560 600
  8.580 615
  8.600 625
  8.620 630
  8.640 600
  8.660 600
  8.680 635
  8.700 576
  8.720 615
  8.740 605
  8.760 635
  8.780 655
  8.800 620
  8.820 645
  8.840 620
  8.860 640
  8.880 615
  8.900 640
  8.920 635
  8.940 665
  8.960 640
  8.980 681
  9.000 640
  9.020 707
  9.040 635
  9.060 691
  9.080 686
  9.100 686
  9.120 645
  9.140 702
  9.160 665
  9.180 650
  9.200 655
  9.220 702
  9.240 676
  9.260 734
  9.280 640
  9.300 756
  9.320 610
  9.340 681
  9.360 665
  9.380 707
  9.400 691
  9.420 676
  9.440 686
  9.460 681
  9.480 676
  9.500 739
  9.520 718
  9.540 691
  9.560 734
  9.580 761
  9.600 767
  9.620 691
  9.640 745
  9.660 761
  9.680 756
  9.700 734
  9.720 756
  9.740 778
  9.760 761
  9.780 761
  9.800 829
  9.820 761
  9.840 778
  9.860 767
  9.880 745
  9.900 761
  9.920 761
  9.940 750
  9.960 795
  9.980 795
 10.000 795
 10.020 778
 10.040 750
 10.060 823
 10.080 745
 10.100 823
 10.120 761
 10.140 806
 10.160 806
 10.180 789
 10.200 812
 10.220 858
 10.240 846
 10.260 823
 10.280 852
 10.300 812
 10.320 835
 10.340 841
 10.360 841
 10.380 800
 10.400 841
 10.420 823
 10.440 817
 10.460 876
 10.480 852
 10.500 852
 10.520 806
 10.540 870
 10.560 817
 10.580 894
 10.600 852
 10.620 906
 10.640 846
 10.660 900
 10.680 876
 10.700 876
 10.720 894
 10.740 841
 10.760 888
 10.780 870
 10.800 876
 10.820 876
 10.840 900
 10.860 924
 10.880 870
 10.900 936
 10.920 930
 10.940 936
 10.960 888
 10.980 894
 11.000 876
 11.020 912
 11.040 930
 11.060 894
 11.080 912
 11.100 918
 11.120 961
 11.140 948
 11.160 979
 11.180 992
 11.200 942
 11.220 1024
 11.240 1004
 11.260 1011
 11.280 1017
 11.300 992
 11.320 998
 11.340 924
 11.360 992
 11.380 1062
 11.400 1043
 11.420 1017
 11.440 1017
 11.460 998
 11.480 1011
 11.500 1056
 11.520 979
 11.540 1043
 11.560 1030
 11.580 1030
 11.600 1036
 11.620 1043
 11.640 1102
 11.660 992
 11.680 1024
 11.700 1043
 11.720 1011
 11.740 973
 11.760 1049
 11.780 1056
 11.800 973
 11.820 1108
 11.840 1049
 11.860 1089
 11.880 1049
 11.900 1017
 11.920 1102
 11.940 1108
 11.960 1017
 11.980 1135
 12.000 1102
 12.020 1075
 12.040 1102
 12.060 1075
 12.080 1108
 12.100 1069
 12.120 1095
 12.140 1102
 12.160 1056
 12.180 1108
 12.200 1102
 12.220 1135
 12.240 1149
 12.260 1102
 12.280 1122
 12.300 1142
 12.320 1169
 12.340 1128
 12.360 1225
 12.380 1218
 12.400 1197
 12.420 1239
 12.440 1274
 12.460 1253
 12.480 1162
 12.500 1211
 12.520 1218
 12.540 1122
 12.560 1211
 12.580 1232
 12.600 1190
 12.620 1225
 12.640 1303
 12.660 1246
 12.680 1274
 12.700 1239
 12.720 1246
 12.740 1176
 12.760 1232
 12.780 1281
 12.800 1260
 12.820 1288
 12.840 1288
 12.860 1354
 12.880 1260
 12.900 1253
 12.920 1288
 12.940 1267
 12.960 1369
 12.980 1303
 13.000 1310
 13.020 1346
 13.040 1332
 13.060 1310
 13.080 1281
 13.100 1369
 13.120 1324
 13.140 1369
 13.160 1346
 13.180 1253
 13.200 1317
 13.220 1281
 13.240 1197
 13.260 1346
 13.280 1361
 13.300 1296
 13.320 1288
 13.340 1310
 13.360 1339
 13.380 1239
 13.400 1281
 13.420 1332
 13.440 1332
 13.460 1296
 13.480 1317
 13.500 1339
 13.520 1310
 13.540 1354
 13.560 1288
 13.580 1339
 13.600 1288
 13.620 1274
 13.640 1354
 13.660 1332
 13.680 1339
 13.700 1354
 13.720 1296
 13.740 1260
 13.760 1296
 13.780 1346
 13.800 1339
 13.820 1354
 13.840 1354
 13.860 1346
 13.880 1324
 13.900 1413
 13.920 1391
 13.940 1369
 13.960 1361
 13.980 1339
 14.000 1444
 14.020 1346
 14.040 1376
 14.060 1391
 14.080 1391
 14.100 1376
 14.120 1459
 14.140 1332
 14.160 1398
 14.180 1398
 14.200 1369
 14.220 1451
 14.240 1505
 14.260 1436
 14.280 1444
 14.300 1436
 14.320 1474
 14.340 1544
 14.360 1521
 14.380 1482
 14.400 1521
 14.420 1489
 14.440 1536
 14.460 1513
 14.480 1489
 14.500 1459
 14.520 1552
 14.540 1536
 14.560 1592
 14.580 1600
 14.600 1497
 14.620 1528
 14.640 1584
 14.660 1632
 14.680 1656
 14.700 1568
 14.720 1632
 14.740 1632
 14.760 1664
 14.780 1713
 14.800 1632
 14.820 1640
 14.840 1722
 14.860 1664
 14.880 1664
 14.900 1672
 14.920 1713
 14.940 1738
 14.960 1747
 14.980 1722
 15.000 1713
 15.020 1689
 15.040 1705
 15.060 1764
 15.080 1722
 15.100 1764
 15.120 1722
 15.140 1738
 15.160 1697
 15.180 1738
 15.200 1840
 15.220 1789
 15.240 1747
 15.260 1883
 15.280 1755
 15.300 1648
 15.320 1730
 15.340 1747
 15.360 1780
 15.380 1697
 15.400 1722
 15.420 1705
 15.440 1730
 15.460 1738
 15.480 1697
 15.500 1705
 15.520 1697
 15.540 1738
 15.560 1747
 15.580 1664
 15.600 1681
 15.620 1797
 15.640 1713
 15.660 1648
 15.680 1640
 15.700 1672
 15.720 1713
 15.740 1697
 15.760 1705
 15.780 1705
 15.800 1738
 15.820 1656
 15.840 1713
 15.860 1648
 15.880 1730
 15.900 1764
 15.920 1664
 15.940 1681
 15.960 1664
 15.980 1640
 16.000 1648
 16.020 1772
 16.040 1764
 16.060 1789
 16.080 1681
 16.100 1697
 16.120 1722
 16.140 1764
 16.160 1640
 16.180 1648
 16.200 1713
 16.220 1747
 16.240 1789
 16.260 1772
 16.280 1664
 16.300 1857
 16.320 1747
 16.340 1764
 16.360 1764
 16.380 1866
 16.400 1789
 16.420 1831
 16.440 1840
 16.460 1780
 16.480 1840
 16.500 1874
 16.520 1857
 16.540 1874
 16.560 1883
 16.580 1900
 16.600 1866
 16.620 1883
 16.640 1874
 16.660 1883
 16.680 1936
 16.700 1927
 16.720 1989
 16.740 1971
 16.760 1918
 16.780 2025
 16.800 1883
 16.820 1989
 16.840 1989
 16.860 1971
 16.880 2016
 16.900 1989
 16.920 1944
 16.940 1953
 16.960 1998
 16.980 1971
 17.000 1980
 17.020 1980
 17.040 2125
 17.060 1953
 17.080 2016
 17.100 2016
 17.120 1989
 17.140 2016
 17.160 2116
 17.180 1962
 17.200 2125
 17.220 2043
 17.240 2070
 17.260 1989
 17.280 2007
 17.300 2007
 17.320 1971
 17.340 1998
 17.360 2079
 17.380 1998
 17.400 2007
 17.420 1909
 17.440 2043
 17.460 2034
 17.480 2016
 17.500 2052
 17.520 2007
 17.540 1953
 17.560 1927
 17.580 2016
 17.600 2007
 17.620 1980
 17.640 2007
 17.660 2052
 17.680 1971
 17.700 2016
 17.720 1918
 17.740 2034
 17.760 2025
 17.780 1998
 17.800 2016
 17.820 2007
 17.840 2162
 17.860 2052
 17.880 2016
 17.900 2088
 17.920 2025
 17.940 2043
 17.960 2052
 17.980 2007
 18.000 2025
 18.020 2034
 18.040 2125
 18.060 1989
 18.080 1998
 18.100 2034
 18.120 2061
 18.140 2097
 18.160 2070
 18.180 1998
 18.200 2061
 18.220 2052
 18.240 1980
 18.260 1927
 18.280 2025
 18.300 2052
 18.320 1971
 18.340 1962
 18.360 2034
 18.380 1944
 18.400 1936
 18.420 1971
 18.440 1971
 18.460 1927
 18.480 1936
 18.500 1883
 18.520 1874
 18.540 1936
 18.560 1927
 18.580 1953
 18.600 1980
 18.620 1944
 18.640 1927
 18.660 1900
 18.680 1883
 18.700 1936
 18.720 1814
 18.740 1840
 18.760 1849
 18.780 1840
 18.800 1900
 18.820 1857
 18.840 1892
 18.860 1755
 18.880 1953
 18.900 1866
 18.920 1789
 18.940 1823
 18.960 1849
 18.980 1840
 19.000 1849
 19.020 1840
 19.040 1849
 19.060 1892
 19.080 1840
 19.100 1831
 19.120 1713
 19.140 1918
 19.160 1772
 19.180 1866
 19.200 1892
 19.220 1814
 19.240 1840
 19.260 1730
 19.280 1755
 19.300 1927
 19.320 1823
 19.340 1883
 19.360 1866
 19.380 1814
 19.400 1806
 19.420 1814
 19.440 1814
 19.460 1927
 19.480 1849
 19.500 1909
 19.520 1900
 19.540 1806
 19.560 1918
 19.580 1866
 19.600 1900
 19.620 1936
 19.640 1927
 19.660 1953
 19.680 1892
 19.700 2007
 19.720 1927
 19.740 1900
 19.760 1953
 19.780 1971
 19.800 1953
 19.820 1936
 19.840 1998
 19.860 1918
 19.880 1962
 19.900 1874
 19.920 1909
 19.940 1918
 19.960 1849
 19.980 1909
 20.000 1823
 20.020 1936
 20.040 1831
 20.060 1780
 20.080 1823
 20.100 1883
 20.120 1814
 20.140 1927
 20.160 1849
 20.180 1789
 20.200 1755
 20.220 1831
 20.240 1780
 20.260 1849
 20.280 1840
 20.300 1780
 20.320 1764
 20.340 1814
 20.360 1722
 20.380 1747
 20.400 1730
 20.420 1705
 20.440 1814
 20.460 1755
 20.480 1705
 20.500 1664
 20.520 1713
 20.540 1705
 20.560 1738
 20.580 1656
 20.600 1664
 20.620 1772
 20.640 1624
 20.660 1656
 20.680 1722
 20.700 1689
 20.720 1656
 20.740 1722
 20.760 1648
 20.780 1713
 20.800 1713
 20.820 1592
 20.840 1689
 20.860 1689
 20.880 1640
 20.900 1656
 20.920 1584
 20.940 1632
 20.960 1672
 20.980 1656
 21.000 1705
 21.020 1681
 21.040 1640
 21.060 1568
 21.080 1600
 21.100 1624
 21.120 1560
 21.140 1600
 21.160 1624
 21.180 1505
 21.200 1624
 21.220 1656
 21.240 1616
 21.260 1592
 21.280 1616
 21.300 1648
 21.320 1616
 21.340 1560
 21.360 1592
 21.380 1584
 21.400 1648
 21.420 1713
 21.440 1608
 21.460 1616
 21.480 1616
 21.500 1568
 21.520 1584
 21.540 1616
 21.560 1528
 21.580 1568
 21.600 1505
 21.620 1576
 21.640 1600
 21.660 1584
 21.680 1536
 21.700 1536
 21.720 1536
 21.740 1536
 21.760 1536
 21.780 1616
 21.800 1513
 21.820 1560
 21.840 1608
 21.860 1592
 21.880 1536
 21.900 1505
 21.920 1552
 21.940 1584
 21.960 1600
 21.980 1560
 22.000 1616
 22.020 1544
 22.040 1568
 22.060 1600
 22.080 1528
 22.100 1592
 22.120 1608
 22.140 1576
 22.160 1608
 22.180 1640
 22.200 1608
 22.220 1592
 22.240 1552
 22.260 1584
 22.280 1624
 22.300 1568
 22.320 1528
 22.340 1592
 22.360 1536
 22.380 1560
 22.400 1544
 22.420 1608
 22.440 1616
 22.460 1616
 22.480 1600
 22.500 1624
 22.520 1664
 22.540 1552
 22.560 1576
 22.580 1544
 22.600 1722
 22.620 1608
 22.640 1624
 22.660 1632
 22.680 1608
 22.700 1624
 22.720 1521
 22.740 1656
 22.760 1640
 22.780 1624
 22.800 1576
 22.820 1552
 22.840 1592
 22.860 1592
 22.880 1648
 22.900 1568
 22.920 1664
 22.940 1632
 22.960 1600
 22.980 1608
 23.000 1632
 23.020 1616
 23.040 1584
 23.060 1552
 23.080 1656
 23.100 1552
 23.120 1576
 23.140 1616
 23.160 1584
 23.180 1576
 23.200 1521
 23.220 1482
 23.240 1552
 23.260 1521
 23.280 1544
 23.300 1513
 23.320 1489
 23.340 1521
 23.360 1482
 23.380 1474
 23.400 1466
 23.420 1505
 23.440 1536
 23.460 1513
 23.480 1505
 23.500 1406
 23.520 1489
 23.540 1466
 23.560 1421
 23.580 1459
 23.600 1421
 23.620 1505
 23.640 1398
 23.660 1421
 23.680 1436
 23.700 1421
 23.720 1436
 23.740 1310
 23.760 1346
 23.780 1317
 23.800 1369
 23.820 1398
 23.840 1369
 23.860 1428
 23.880 1376
 23.900 1288
 23.920 1346
 23.940 1317
 23.960 1324
 23.980 1383
 24.000 1324
 24.020 1354
 24.040 1317
 24.060 1369
 24.080 1339
 24.100 1332
 24.120 1260
 24.140 1296
 24.160 1232
 24.180 1225
 24.200 1339
 24.220 1281
 24.240 1369
 24.260 1267
 24.280 1281
 24.300 1211
 24.320 1296
 24.340 1260
 24.360 1288
 24.380 1218
 24.400 1232
 24.420 1246
 24.440 1246
 24.460 1239
 24.480 1253
 24.500 1246
 24.520 1253
 24.540 1211
 24.560 1197
 24.580 1303
 24.600 1128
 24.620 1135
 24.640 1197
 24.660 1183
 24.680 1176
 24.700 1204
 24.720 1156
 24.740 1232
 24.760 1232
 24.780 1183
 24.800 1156
 24.820 1122
 24.840 1162
 24.860 1142
 24.880 1190
 24.900 1156
 24.920 1149
 24.940 1135
 24.960 1156
 24.980 1122
 25.000 1115
 25.020 1156
 25.040 1156
 25.060 1115
 25.080 1095
 25.100 1102
 25.120 1082
 25.140 1095
 25.160 1069
 25.180 1082
 25.200 1011
 25.220 1115
 25.240 1102
 25.260 1115
 25.280 1082
 25.300 1115
 25.320 1075
 25.340 1011
 25.360 1102
 25.380 1075
 25.400 1049
 25.420 1062
 25.440 1095
 25.460 1069
 25.480 1043
 25.500 1056
 25.520 1030
 25.540 1075
 25.560 1049
 25.580 1056
 25.600 1089
 25.620 1108
 25.640 1102
 25.660 1024
 25.680 1024
 25.700 1075
 25.720 1049
 25.740 1049
 25.760 1108
 25.780 1043
 25.800 1108
 25.820 1036
 25.840 1069
 25.860 1075
 25.880 979
 25.900 1011
 25.920 1043
 25.940 1036
 25.960 973
 25.980 1004
 26.000 1082
 26.020 1062
 26.040 1036
 26.060 1062
 26.080 1017
 26.100 1011
 26.120 1069
 26.140 1017
 26.160 1056
 26.180 1024
 26.200 973
 26.220 1011
 26.240 1024
 26.260 1004
 26.280 961
 26.300 985
 26.320 985
 26.340 985
 26.360 1011
 26.380 1030
 26.400 1030
 26.420 967
 26.440 1024
 26.460 1011
 26.480 967
 26.500 1024
 26.520 961
 26.540 1011
 26.560 1082
 26.580 973
 26.600 985
 26.620 992
 26.640 1036
 26.660 961
 26.680 1043
 26.700 930
 26.720 1017
 26.740 967
 26.760 985
 26.780 1004
 26.800 1004
 26.820 985
 26.840 998
 26.860 967
 26.880 967
 26.900 1024
 26.920 985
 26.940 1004
 26.960 936
 26.980 979
 27.000 961
 27.020 948
 27.040 876
 27.060 894
 27.080 973
 27.100 961
 27.120 954
 27.140 954
 27.160 924
 27.180 979
 27.200 930
 27.220 961
 27.240 918
 27.260 930
 27.280 936
 27.300 936
 27.320 973
 27.340 930
 27.360 948
 27.380 924
 27.400 912
 27.420 967
 27.440 912
 27.460 936
 27.480 894
 27.500 918
 27.520 924
 27.540 912
 27.560 894
 27.580 985
 27.600 870
 27.620 924
 27.640 942
 27.660 973
 27.680 918
 27.700 954
 27.720 954
 27.740 936
 27.760 912
 27.780 894
 27.800 858
 27.820 864
 27.840 948
 27.860 906
 27.880 948
 27.900 942
 27.920 882
 27.940 900
 27.960 876
 27.980 900
 28.000 888
 28.020 954
 28.040 888
 28.060 894
 28.080 882
 28.100 936
 28.120 900
 28.140 954
 28.160 888
 28.180 888
 28.200 900
 28.220 912
 28.240 900
 28.260 882
 28.280 900
 28.300 888
 28.320 906
 28.340 894
 28.360 961
 28.380 888
 28.400 942
 28.420 918
 28.440 852
 28.460 900
 28.480 846
 28.500 900
 28.520 870
 28.540 918
 28.560 888
 28.580 936
 28.600 906
 28.620 900
 28.640 882
 28.660 918
 28.680 864
 28.700 918
 28.720 900
 28.740 894
 28.760 918
 28.780 900
 28.800 936
 28.820 882
 28.840 942
 28.860 954
 28.880 936
 28.900 900
 28.920 918
 28.940 900
 28.960 882
 28.980 930
 29.000 870
 29.020 936
 29.040 894
 29.060 906
 29.080 864
 29.100 876
 29.120 906
 29.140 924
 29.160 876
 29.180 942
 29.200 888
 29.220 912
 29.240 882
 29.260 906
 29.280 846
 29.300 924
 29.320 835
 29.340 888
 29.360 870
 29.380 894
 29.400 882
 29.420 852
 29.440 864
 29.460 894
 29.480 918
 29.500 894
 29.520 846
 29.540 858
 29.560 900
 29.580 918
 29.600 912
 29.620 870
 29.640 864
 29.660 858
 29.680 882
 29.700 888
 29.720 870
 29.740 864
 29.760 876
 29.780 924
 29.800 924
 29.820 882
 29.840 858
 29.860 870
 29.880 936
 29.900 900
 29.920 876
 29.940 948
 29.960 942
 29.980 870
 30.000 870
 30.020 888
 30.040 936
 30.060 936
 30.080 924
 30.100 882
 30.120 924
 30.140 900
 30.160 864
 30.180 912
 30.200 924
 30.220 870
 30.240 936
 30.260 882
 30.280 894
 30.300 876
 30.320 876
 30.340 894
 30.360 912
 30.380 948
 30.400 906
 30.420 876
 30.440 930
 30.460 906
 30.480 942
 30.500 918
 30.520 906
 30.540 900
 30.560 882
 30.580 918
 30.600 924
 30.620 942
 30.640 888
 30.660 906
 30.680 918
 30.700 846
 30.720 870
 30.740 882
 30.760 852
 30.780 876
 30.800 924
 30.820 930
 30.840 852
 30.860 870
 30.880 973
 30.900 912
 30.920 930
 30.940 882
 30.960 924
 30.980 894
 31.000 918
 31.020 906
 31.040 918
 31.060 918
 31.080 924
 31.100 852
 31.120 858
 31.140 846
 31.160 876
 31.180 912
 31.200 846
 31.220 876
 31.240 912
 31.260 906
 31.280 852
 31.300 870
 31.320 912
 31.340 876
 31.360 894
 31.380 894
 31.400 870
 31.420 841
 31.440 852
 31.460 858
 31.480 876
 31.500 894
 31.520 906
 31.540 924
 31.560 870
 31.580 906
 31.600 930
 31.620 912
 31.640 882
 31.660 870
 31.680 882
 31.700 876
 31.720 882
 31.740 906
 31.760 924
 31.780 864
 31.800 852
 31.820 985
 31.840 900
 31.860 864
 31.880 876
 31.900 961
 31.920 888
 31.940 876
 31.960 948
 31.980 900
 32.000 918
 32.020 870
 32.040 912
 32.060 942
 32.080 936
 32.100 882
 32.120 864
 32.140 894
 32.160 846
 32.180 936
 32.200 870
 32.220 894
 32.240 900
 32.260 876
 32.280 858
 32.300 846
 32.320 967
 32.340 829
 32.360 906
 32.380 924
 32.400 858
 32.420 882
 32.440 888
 32.460 906
 32.480 870
 32.500 888
 32.520 906
 32.540 912
 32.560 888
 32.580 876
 32.600 894
 32.620 864
 32.640 906
 32.660 900
 32.680 882
 32.700 882
 32.720 823
 32.740 864
 32.760 858
 32.780 858
 32.800 888
 32.820 900
 32.840 936
 32.860 882
 32.880 906
 32.900 846
 32.920 894
 32.940 906
 32.960 846
 32.980 882
 33.000 894
 33.020 900
 33.040 900
 33.060 876
 33.080 924
 33.100 912
 33.120 918
 33.140 876
 33.160 894
 33.180 906
 33.200 936
 33.220 876
 33.240 846
 33.260 835
 33.280 918
 33.300 942
 33.320 973
 33.340 888
 33.360 900
 33.380 918
 33.400 894
 33.420 882
 33.440 948
 33.460 858
 33.480 864
 33.500 882
 33.520 888
 33.540 942
 33.560 918
 33.580 918
 33.600 906
 33.620 918
 33.640 912
 33.660 992
 33.680 918
 33.700 912
 33.720 918
 33.740 823
 33.760 954
 33.780 906
 33.800 894
 33.820 912
 33.840 864
 33.860 888
 33.880 906
 33.900 882
 33.920 876
 33.940 906
 33.960 906
 33.980 846
 34.000 918
 34.020 888
 34.040 906
 34.060 841
 34.080 876
 34.100 930
 34.120 992
 34.140 876
 34.160 858
 34.180 900
 34.200 858
 34.220 930
 34.240 882
 34.260 888
 34.280 858
 34.300 936
 34.320 882
 34.340 1024
 34.360 906
 34.380 858
 34.400 936
 34.420 870
 34.440 882
 34.460 852
 34.480 846
 34.500 912
 34.520 894
 34.540 888
 34.560 918
 34.580 894
 34.600 930
 34.620 900
 34.640 894
 34.660 912
 34.680 882
 34.700 942
 34.720 900
 34.740 918
 34.760 888
 34.780 858
 34.800 846
 34.820 841
 34.840 882
 34.860 906
 34.880 882
 34.900 870
 34.920 852
 34.940 858
 34.960 858
 34.980 852
 35.000 936
 35.020 835
 35.040 882
 35.060 876
 35.080 835
 35.100 870
 35.120 846
 35.140 894
 35.160 894
 35.180 870
 35.200 858
 35.220 894
 35.240 864
 35.260 829
 35.280 876
 35.300 870
 35.320 876
 35.340 852
 35.360 876
 35.380 894
 35.400 888
 35.420 835
 35.440 864
 35.460 876
 35.480 870
 35.500 900
 35.520 888
 35.540 870
 35.560 894
 35.580 864
 35.600 800
 35.620 812
 35.640 823
 35.660 841
 35.680 864
 35.700 835
 35.720 864
 35.740 852
 35.760 817
 35.780 846
 35.800 852
 35.820 817
 35.840 852
 35.860 772
 35.880 835
 35.900 852
 35.920 882
 35.940 888
 35.960 841
 35.980 864
 36.000 870
 36.020 812
 36.040 823
 36.060 864
 36.080 858
 36.100 882
 36.120 817
 36.140 870
 36.160 841
 36.180 806
 36.200 829
 36.220 876
 36.240 835
 36.260 829
 36.280 876
 36.300 870
 36.320 852
 36.340 806
 36.360 784
 36.380 817
 36.400 812
 36.420 829
 36.440 846
 36.460 817
 36.480 784
 36.500 852
 36.520 835
 36.540 846
 36.560 829
 36.580 829
 36.600 784
 36.620 823
 36.640 806
 36.660 806
 36.680 806
 36.700 852
 36.720 812
 36.740 800
 36.760 841
 36.780 795
 36.800 784
 36.820 795
 36.840 852
 36.860 846
 36.880 841
 36.900 846
 36.920 835
 36.940 806
 36.960 829
 36.980 817
 37.000 823
 37.020 789
 37.040 817
 37.060 835
 37.080 835
 37.100 817
 37.120 835
 37.140 761
 37.160 846
 37.180 800
 37.200 835
 37.220 846
 37.240 812
 37.260 829
 37.280 812
 37.300 817
 37.320 806
 37.340 858
 37.360 806
 37.380 795
 37.400 858
 37.420 761
 37.440 841
 37.460 795
 37.480 846
 37.500 858
 37.520 858
 37.540 806
 37.560 841
 37.580 841
 37.600 829
 37.620 806
 37.640 772
 37.660 795
 37.680 823
 37.700 812
 37.720 812
 37.740 800
 37.760 756
 37.780 841
 37.800 806
 37.820 756
 37.840 864
 37.860 778
 37.880 795
 37.900 829
 37.920 756
 37.940 789
 37.960 784
 37.980 829
 38.000 806
 38.020 789
 38.040 756
 38.060 829
 38.080 806
 38.100 767
 38.120 812
 38.140 778
 38.160 761
 38.180 835
 38.200 812
 38.220 772
 38.240 835
 38.260 778
 38.280 800
 38.300 812
 38.320 829
 38.340 761
 38.360 784
 38.380 800
 38.400 817
 38.420 772
 38.440 761
 38.460 789
 38.480 767
 38.500 823
 38.520 812
 38.540 789
 38.560 739
 38.580 784
 38.600 772
 38.620 800
 38.640 778
 38.660 800
 38.680 784
 38.700 778
 38.720 778
 38.740 795
 38.760 739
 38.780 745
 38.800 778
 38.820 829
 38.840 761
 38.860 761
 38.880 772
 38.900 750
 38.920 812
 38.940 739
 38.960 745
 38.980 795
 39.000 789
 39.020 761
 39.040 750
 39.060 789
 39.080 739
 39.100 696
 39.120 734
 39.140 784
 39.160 767
 39.180 795
 39.200 745
 39.220 778
 39.240 756
 39.260 761
 39.280 756
 39.300 723
 39.320 718
 39.340 784
 39.360 739
 39.380 723
 39.400 734
 39.420 718
 39.440 767
 39.460 745
 39.480 745
 39.500 745
 39.520 756
 39.540 772
 39.560 750
 39.580 756
 39.600 734
 39.620 761
 39.640 739
 39.660 712
 39.680 707
 39.700 718
 39.720 745
 39.740 756
 39.760 660
 39.780 745
 39.800 691
 39.820 729
 39.840 729
 39.860 734
 39.880 696
 39.900 707
 39.920 691
 39.940 723
 39.960 718
 39.980 712
 40.000 707
 40.020 723
 40.040 745
 40.060 723
 40.080 712
 40.100 734
 40.120 691
 40.140 750
 40.160 702
 40.180 723
 40.200 691
 40.220 712
 40.240 686
 40.260 718
 40.280 750
 40.300 696
 40.320 707
 40.340 712
 40.360 681
 40.380 691
 40.400 660
 40.420 756
 40.440 696
 40.460 691
 40.480 723
 40.500 665
 40.520 707
 40.540 676
 40.560 702
 40.580 650
 40.600 702
 40.620 676
 40.640 686
 40.660 702
 40.680 681
 40.700 650
 40.720 655
 40.740 712
 40.760 707
 40.780 645
 40.800 676
 40.820 665
 40.840 655
 40.860 650
 40.880 640
 40.900 625
 40.920 681
 40.940 681
 40.960 691
 40.980 655
 41.000 686
 41.020 640
 41.040 696
 41.060 691
 41.080 660
 41.100 686
 41.120 696
 41.140 665
 41.160 696
 41.180 620
 41.200 635
 41.220 691
 41.240 670
 41.260 665
 41.280 691
 41.300 640
 41.320 676
 41.340 676
 41.360 676
 41.380 640
 41.400 686
 41.420 686
 41.440 707
 41.460 681
 41.480 681
 41.500 696
 41.520 625
 41.540 665
 41.560 712
 41.580 702
 41.600 625
 41.620 660
 41.640 681
 41.660 650
 41.680 630
 41.700 660
 41.720 635
 41.740 650
 41.760 655
 41.780 645
 41.800 625
 41.820 620
 41.840 702
 41.860 681
 41.880 655
 41.900 660
 41.920 650
 41.940 655
 41.960 645
 41.980 686
 42.000 660
 42.020 660
 42.040 676
 42.060 645
 42.080 635
 42.100 650
 42.120 635
 42.140 625
 42.160 665
 42.180 640
 42.200 660
 42.220 665
 42.240 681
 42.260 660
 42.280 645
 42.300 655
 42.320 620
 42.340 650
 42.360 660
 42.380 630
 42.400 665
 42.420 645
 42.440 670
 42.460 660
 42.480 660
 42.500 625
 42.520 635
 42.540 635
 42.560 630
 42.580 625
 42.600 640
 42.620 610
 42.640 660
 42.660 630
 42.680 660
 42.700 635
 42.720 665
 42.740 580
 42.760 635
 42.780 620
 42.800 625
 42.820 645
 42.840 660
 42.860 655
 42.880 645
 42.900 620
 42.920 615
 42.940 686
 42.960 645
 42.980 625
 43.000 635
 43.020 650
 43.040 640
 43.060 625
 43.080 635
 43.100 590
 43.120 650
 43.140 640
 43.160 635
 43.180 650
 43.200 630
 43.220 595
 43.240 640
 43.260 665
 43.280 702
 43.300 660
 43.320 650
 43.340 676
 43.360 620
 43.380 615
 43.400 655
 43.420 630
 43.440 640
 43.460 635
 43.480 691
 43.500 630
 43.520 600
 43.540 605
 43.560 645
 43.580 610
 43.600 620
 43.620 630
 43.640 665
 43.660 600
 43.680 620
 43.700 640
 43.720 650
 43.740 630
 43.760 615
 43.780 620
 43.800 580
 43.820 650
 43.840 615
 43.860 610
 43.880 595
 43.900 650
 43.920 615
 43.940 650
 43.960 640
 43.980 615
 44.000 640
 44.020 650
 44.040 635
 44.060 595
 44.080 650
 44.100 542
 44.120 640
 44.140 670
 44.160 625
 44.180 620
 44.200 635
 44.220 645
 44.240 640
 44.260 561
 44.280 645
 44.300 605
 44.320 576
 44.340 576
 44.360 650
 44.380 640
 44.400 600
 44.420 635
 44.440 576
 44.460 585
 44.480 630
 44.500 640
 44.520 600
 44.540 645
 44.560 600
 44.580 600
 44.600 630
 44.620 595
 44.640 645
 44.660 620
 44.680 585
 44.700 585
 44.720 576
 44.740 665
 44.760 670
 44.780 615
 44.800 610
 44.820 655
 44.840 635
 44.860 610
 44.880 600
 44.900 585
 44.920 670
 44.940 630
 44.960 595
 44.980 640
 45.000 600
 45.020 630
 45.040 615
 45.060 600
 45.080 585
 45.100 580
 45.120 610
 45.140 590
 45.160 561
 45.180 605
 45.200 625
 45.220 561
 45.240 600
 45.260 605
 45.280 552
 45.300 571
 45.320 635
 45.340 635
 45.360 635
 45.380 615
 45.400 590
 45.420 595
 45.440 580
 45.460 610
 45.480 576
 45.500 600
 45.520 552
 45.540 580
 45.560 595
 45.580 538
 45.600 610
 45.620 605
 45.640 576
 45.660 585
 45.680 585
 45.700 566
 45.720 600
 45.740 590
 45.760 605
 45.780 576
 45.800 547
 45.820 571
 45.840 547
 45.860 576
 45.880 600
 45.900 580
 45.920 590
 45.940 566
 45.960 625
 45.980 605
 46.000 610
 46.020 620
 46.040 605
 46.060 571
 46.080 620
 46.100 600
 46.120 585
 46.140 585
 46.160 635
 46.180 566
 46.200 571
 46.220 571
 46.240 566
 46.260 620
 46.280 585
 46.300 585
 46.320 610
 46.340 561
 46.360 585
 46.380 566
 46.400 585
 46.420 615
 46.440 595
 46.460 585
 46.480 590
 46.500 576
 46.520 556
 46.540 595
 46.560 625
 46.580 585
 46.600 600
 46.620 561
 46.640 515
 46.660 600
 46.680 580
 46.700 561
 46.720 580
 46.740 576
 46.760 610
 46.780 552
 46.800 600
 46.820 600
 46.840 561
 46.860 576
 46.880 585
 46.900 547
 46.920 590
 46.940 576
 46.960 610
 46.980 571
 47.000 615
 47.020 566
 47.040 571
 47.060 585
 47.080 595
 47.100 610
 47.120 600
 47.140 556
 47.160 571
 47.180 595
 47.200 585
 47.220 600
 47.240 605
 47.260 561
 47.280 556
 47.300 571
 47.320 595
 47.340 566
 47.360 571
 47.380 585
 47.400 580
 47.420 576
 47.440 556
 47.460 580
 47.480 552
 47.500 605
 47.520 561
 47.540 542
 47.560 552
 47.580 561
 47.600 561
 47.620 538
 47.640 576
 47.660 585
 47.680 605
 47.700 561
 47.720 561
 47.740 561
 47.760 552
 47.780 585
 47.800 552
 47.820 552
 47.840 533
 47.860 566
 47.880 538
 47.900 515
 47.920 529
 47.940 538
 47.960 576
 47.980 556
 48.000 538
 48.020 561
 48.040 561
 48.060 585
 48.080 538
 48.100 566
 48.120 556
 48.140 600
 48.160 501
 48.180 552
 48.200 566
 48.220 556
 48.240 552
 48.260 566
 48.280 497
 48.300 510
 48.320 566
 48.340 552
 48.360 595
 48.380 515
 48.400 538
 48.420 590
 48.440 510
 48.460 561
 48.480 571
 48.500 542
 48.520 576
 48.540 488
 48.560 506
 48.580 529
 48.600 524
 48.620 538
 48.640 566
 48.660 524
 48.680 542
 48.700 497
 48.720 497
 48.740 510
 48.760 519
 48.780 529
 48.800 533
 48.820 533
 48.840 497
 48.860 519
 48.880 529
 48.900 484
 48.920 533
 48.940 519
 48.960 515
 48.980 515
 49.000 524
 49.020 506
 49.040 510
 49.060 506
 49.080 470
 49.100 515
 49.120 506
 49.140 506
 49.160 453
 49.180 533
 49.200 497
 49.220 501
 49.240 510
 49.260 533
 49.280 529
 49.300 515
 49.320 501
 49.340 547
 49.360 479
 49.380 510
 49.400 506
 49.420 506
 49.440 529
 49.460 501
 49.480 515
 49.500 475
 49.520 484
 49.540 470
 49.560 501
 49.580 492
 49.600 470
 49.620 479
 49.640 484
 49.660 492
 49.680 529
 49.700 479
 49.720 470
 49.740 497
 49.760 475
 49.780 479
 49.800 466
 49.820 497
 49.840 457
 49.860 470
 49.880 441
 49.900 475
 49.920 529
 49.940 510
 49.960 515
 49.980 470
 50.000 441
 50.020 462
 50.040 488
 50.060 462
 50.080 484
 50.100 445
 50.120 492
 50.140 466
 50.160 501
 50.180 462
 50.200 445
 50.220 441
 50.240 501
 50.260 488
 50.280 475
 50.300 470
 50.320 479
 50.340 424
 50.360 488
 50.380 466
 50.400 488
 50.420 445
 50.440 424
 50.460 449
 50.480 445
 50.500 466
 50.520 457
 50.540 436
 50.560 475
 50.580 462
 50.600 479
 50.620 420
 50.640 453
 50.660 470
 50.680 449
 50.700 416
 50.720 436
 50.740 484
 50.760 470
 50.780 445
 50.800 457
 50.820 449
 50.840 428
 50.860 492
 50.880 428
 50.900 441
 50.920 457
 50.940 445
 50.960 412
 50.980 441
 51.000 428
 51.020 420
 51.040 466
 51.060 488
 51.080 470
 51.100 436
 51.120 420
 51.140 457
 51.160 449
 51.180 462
 51.200 400
 51.220 462
 51.240 457
 51.260 388
 51.280 420
 51.300 432
 51.320 416
 51.340 432
 51.360 416
 51.380 441
 51.400 436
 51.420 441
 51.440 432
 51.460 424
 51.480 445
 51.500 436
 51.520 388
 51.540 424
 51.560 388
 51.580 408
 51.600 441
 51.620 420
 51.640 392
 51.660 384
 51.680 404
 51.700 457
 51.720 462
 51.740 392
 51.760 424
 51.780 400
 51.800 384
 51.820 416
 51.840 396
 51.860 428
 51.880 388
 51.900 445
 51.920 432
 51.940 424
 51.960 408
 51.980 424
 52.000 416
 52.020 436
 52.040 420
 52.060 432
 52.080 420
 52.100 404
 52.120 416
 52.140 424
 52.160 400
 52.180 420
 52.200 408
 52.220 388
 52.240 376
 52.260 412
 52.280 392
 52.300 400
 52.320 432
 52.340 372
 52.360 449
 52.380 353
 52.400 372
 52.420 408
 52.440 412
 52.460 388
 52.480 408
 52.500 404
 52.520 408
 52.540 428
 52.560 380
 52.580 416
 52.600 416
 52.620 372
 52.640 372
 52.660 396
 52.680 392
 52.700 388
 52.720 436
 52.740 400
 52.760 384
 52.780 388
 52.800 396
 52.820 392
 52.840 368
 52.860 349
 52.880 424
 52.900 364
 52.920 372
 52.940 368
 52.960 384
 52.980 396
 53.000 408
 53.020 396
 53.040 400
 53.060 376
 53.080 412
 53.100 424
 53.120 364
 53.140 368
 53.160 404
 53.180 368
 53.200 432
 53.220 364
 53.240 361
 53.260 372
 53.280 388
 53.300 400
 53.320 388
 53.340 380
 53.360 380
 53.380 361
 53.400 376
 53.420 380
 53.440 380
 53.460 376
 53.480 396
 53.500 353
 53.520 368
 53.540 361
 53.560 368
 53.580 392
 53.600 349
 53.620 396
 53.640 416
 53.660 376
 53.680 372
 53.700 357
 53.720 376
 53.740 384
 53.760 327
 53.780 368
 53.800 357
 53.820 376
 53.840 404
 53.860 392
 53.880 364
 53.900 357
 53.920 372
 53.940 376
 53.960 327
 53.980 361
 54.000 384
 54.020 338
 54.040 357
 54.060 361
 54.080 327
 54.100 342
 54.120 324
 54.140 372
 54.160 320
 54.180 320
 54.200 372
 54.220 353
 54.240 361
 54.260 338
 54.280 384
 54.300 357
 54.320 349
 54.340 357
 54.360 361
 54.380 338
 54.400 392
 54.420 368
 54.440 368
 54.460 327
 54.480 372
 54.500 345
 54.520 353
 54.540 380
 54.560 327
 54.580 368
 54.600 349
 54.620 361
 54.640 316
 54.660 349
 54.680 357
 54.700 327
 54.720 331
 54.740 349
 54.760 320
 54.780 327
 54.800 345
 54.820 349
 54.840 353
 54.860 324
 54.880 338
 54.900 331
 54.920 353
 54.940 342
 54.960 324
 54.980 338
 55.000 331
 55.020 372
 55.040 342
 55.060 349
 55.080 353
 55.100 338
 55.120 334
 55.140 380
 55.160 320
 55.180 361
 55.200 338
 55.220 324
 55.240 316
 55.260 327
 55.280 327
 55.300 331
 55.320 349
 55.340 320
 55.360 316
 55.380 380
 55.400 342
 55.420 272
 55.440 361
 55.460 316
 55.480 361
 55.500 327
 55.520 320
 55.540 299
 55.560 306
 55.580 334
 55.600 345
 55.620 338
 55.640 334
 55.660 345
 55.680 327
 55.700 327
 55.720 306
 55.740 327
 55.760 334
 55.780 353
 55.800 324
 55.820 334
 55.840 331
 55.860 376
 55.880 306
 55.900 331
 55.920 334
 55.940 327
 55.960 320
 55.980 313
 56.000 292
 56.020 309
 56.040 306
 56.060 309
 56.080 334
 56.100 313
 56.120 327
 56.140 289
 56.160 306
 56.180 306
 56.200 353
 56.220 306
 56.240 299
 56.260 349
 56.280 313
 56.300 302
 56.320 292
 56.340 349
 56.360 331
 56.380 320
 56.400 338
 56.420 299
 56.440 320
 56.460 316
 56.480 320
 56.500 316
 56.520 302
 56.540 292
 56.560 292
 56.580 320
 56.600 292
 56.620 327
 56.640 272
 56.660 320
 56.680 285
 56.700 275
 56.720 299
 56.740 331
 56.760 302
 56.780 316
 56.800 309
 56.820 306
 56.840 342
 56.860 265
 56.880 320
 56.900 309
 56.920 313
 56.940 324
 56.960 345
 56.980 316
 57.000 295
 57.020 306
 57.040 334
 57.060 309
 57.080 285
 57.100 292
 57.120 295
 57.140 295
 57.160 313
 57.180 299
 57.200 292
 57.220 295
 57.240 278
 57.260 299
 57.280 282
 57.300 357
 57.320 313
 57.340 313
 57.360 309
 57.380 289
 57.400 302
 57.420 331
 57.440 299
 57.460 282
 57.480 292
 57.500 292
 57.520 272
 57.540 289
 57.560 285
 57.580 299
 57.600 331
 57.620 252
 57.640 295
 57.660 320
 57.680 309
 57.700 289
 57.720 285
 57.740 313
 57.760 302
 57.780 285
 57.800 306
 57.820 282
 57.840 292
 57.860 295
 57.880 299
 57.900 313
 57.920 313
 57.940 331
 57.960 292
 57.980 272
 58.000 282
 58.020 292
 58.040 292
 58.060 272
 58.080 302
 58.100 272
 58.120 306
 58.140 265
 58.160 256
 58.180 306
 58.200 285
 58.220 299
 58.240 275
 58.260 278
 58.280 272
 58.300 268
 58.320 324
 58.340 289
 58.360 275
 58.380 289
 58.400 265
 58.420 292
 58.440 278
 58.460 265
 58.480 275
 58.500 282
 58.520 268
 58.540 285
 58.560 272
 58.580 309
 58.600 292
 58.620 299
 58.640 313
 58.660 268
 58.680 275
 58.700 289
 58.720 299
 58.740 275
 58.760 295
 58.780 268
 58.800 302
 58.820 282
 58.840 289
 58.860 278
 58.880 285
 58.900 265
 58.920 299
 58.940 268
 58.960 282
 58.980 259
 59.000 285
 59.020 272
 59.040 262
 59.060 268
 59.080 313
 59.100 282
 59.120 259
 59.140 295
 59.160 278
 59.180 292
 59.200 313
 59.220 272
 59.240 282
 59.260 302
 59.280 268
 59.300 272
 59.320 309
 59.340 285
 59.360 289
 59.380 282
 59.400 249
 59.420 285
 59.440 265
 59.460 299
 59.480 275
 59.500 275
 59.520 265
 59.540 265
 59.560 295
 59.580 292
 59.600 289
 59.620 272
 59.640 268
 59.660 268
 59.680 272
 59.700 278
 59.720 289
 59.740 299
 59.760 268
 59.780 272
 59.800 252
 59.820 268
 59.840 278
 59.860 272
 59.880 265
 59.900 278
 59.920 268
 59.940 243
 59.960 249
 59.980 262
 60.000 275
 60.020 246
 60.040 272
 60.060 249
 60.080 275
 60.100 265
 60.120 262
 60.140 252
 60.160 272
 60.180 292
 60.200 292
 60.220 262
 60.240 256
 60.260 256
 60.280 282
 60.300 262
 60.320 246
 60.340 265
 60.360 262
 60.380 256
 60.400 246
 60.420 246
 60.440 259
 60.460 262
 60.480 252
 60.500 262
 60.520 240
 60.540 252
 60.560 237
 60.580 275
 60.600 275
 60.620 292
 60.640 289
 60.660 231
 60.680 275
 60.700 268
 60.720 246
 60.740 295
 60.760 243
 60.780 252
 60.800 272
 60.820 289
 60.840 246
 60.860 256
 60.880 237
 60.900 292
 60.920 246
 60.940 268
 60.960 275
 60.980 268
 61.000 246
 61.020 234
 61.040 278
 61.060 246
 61.080 256
 61.100 259
 61.120 278
 61.140 275
 61.160 268
 61.180 246
 61.200 252
 61.220 265
 61.240 275
 61.260 282
 61.280 306
 61.300 262
 61.320 295
 61.340 259
 61.360 249
 61.380 246
 61.400 256
 61.420 240
 61.440 256
 61.460 272
 61.480 252
 61.500 265
 61.520 268
 61.540 272
 61.560 295
 61.580 237
 61.600 262
 61.620 228
 61.640 240
 61.660 265
 61.680 272
 61.700 249
 61.720 237
 61.740 259
 61.760 252
 61.780 262
 61.800 259
 61.820 252
 61.840 231
 61.860 262
 61.880 246
 61.900 268
 61.920 252
 61.940 252
 61.960 262
 61.980 228
 62.000 252
 62.020 249
 62.040 246
 62.060 262
 62.080 265
 62.100 265
 62.120 268
 62.140 216
 62.160 240
 62.180 234
 62.200 262
 62.220 243
 62.240 249
 62.260 262
 62.280 265
 62.300 231
 62.320 252
 62.340 252
 62.360 246
 62.380 275
 62.400 240
 62.420 256
 62.440 252
 62.460 243
 62.480 234
 62.500 243
 62.520 256
 62.540 272
 62.560 262
 62.580 204
 62.600 228
 62.620 234
 62.640 234
 62.660 231
 62.680 246
 62.700 268
 62.720 237
 62.740 265
 62.760 268
 62.780 228
 62.800 246
 62.820 237
 62.840 243
 62.860 240
 62.880 259
 62.900 234
 62.920 231
 62.940 268
 62.960 252
 62.980 256
 63.000 237
 63.020 246
 63.040 256
 63.060 252
 63.080 234
 63.100 272
 63.120 272
 63.140 252
 63.160 262
 63.180 243
 63.200 237
 63.220 222
 63.240 246
 63.260 240
 63.280 243
 63.300 252
 63.320 240
 63.340 282
 63.360 268
 63.380 240
 63.400 240
 63.420 262
 63.440 249
 63.460 243
 63.480 256
 63.500 252
 63.520 225
 63.540 246
 63.560 225
 63.580 272
 63.600 237
 63.620 249
 63.640 213
 63.660 234
 63.680 240
 63.700 243
 63.720 256
 63.740 225
 63.760 228
 63.780 225
 63.800 272
 63.820 237
 63.840 265
 63.860 256
 63.880 252
 63.900 228
 63.920 231
 63.940 243
 63.960 231
 63.980 252
 64.000 243
 64.020 219
 64.040 252
 64.060 262
 64.080 216
 64.100 237
 64.120 246
 64.140 246
 64.160 228
 64.180 249
 64.200 246
 64.220 246
 64.240 256
 64.260 234
 64.280 243
 64.300 231
 64.320 282
 64.340 222
 64.360 246
 64.380 240
 64.400 249
 64.420 262
 64.440 246
 64.460 256
 64.480 252
 64.500 262
 64.520 243
 64.540 231
 64.560 222
 64.580 249
 64.600 265
 64.620 231
 64.640 237
 64.660 246
 64.680 256
 64.700 243
 64.720 240
 64.740 246
 64.760 249
 64.780 216
 64.800 234
 64.820 234
 64.840 225
 64.860 246
 64.880 243
 64.900 259
 64.920 234
 64.940 234
 64.960 243
 64.980 222
 65.000 225
 65.020 246
 65.040 240
 65.060 246
 65.080 225
 65.100 265
 65.120 207
 65.140 237
 65.160 259
 65.180 249
 65.200 237
 65.220 262
 65.240 228
 65.260 243
 65.280 240
 65.300 246
 65.320 262
 65.340 234
 65.360 256
 65.380 213
 65.400 228
 65.420 249
 65.440 201
 65.460 262
 65.480 243
 65.500 234
 65.520 234
 65.540 243
 65.560 216
 65.580 237
 65.600 237
 65.620 234
 65.640 231
 65.660 262
 65.680 256
 65.700 249
 65.720 243
 65.740 256
 65.760 228
 65.780 252
 65.800 204
 65.820 231
 65.840 246
 65.860 216
 65.880 265
 65.900 225
 65.920 246
 65.940 240
 65.960 240
 65.980 240
 66.000 249
 66.020 262
 66.040 234
 66.060 231
 66.080 243
 66.100 231
 66.120 240
 66.140 210
 66.160 246
 66.180 252
 66.200 240
 66.220 228
 66.240 231
 66.260 213
 66.280 246
 66.300 246
 66.320 237
 66.340 249
 66.360 240
 66.380 243
 66.400 265
 66.420 240
 66.440 222
 66.460 228
 66.480 243
 66.500 228
 66.520 219
 66.540 249
 66.560 246
 66.580 213
 66.600 225
 66.620 234
 66.640 222
 66.660 240
 66.680 246
 66.700 237
 66.720 222
 66.740 225
 66.760 246
 66.780 231
 66.800 240
 66.820 225
 66.840 243
 66.860 246
 66.880 210
 66.900 249
 66.920 243
 66.940 246
 66.960 259
 66.980 207
 67.000 252
 67.020 243
 67.040 222
 67.060 246
 67.080 240
 67.100 219
 67.120 237
 67.140 243
 67.160 231
 67.180 228
 67.200 237
 67.220 225
 67.240 213
 67.260 228
 67.280 240
 67.300 243
 67.320 228
 67.340 231
 67.360 243
 67.380 225
 67.400 225
 67.420 216
 67.440 225
 67.460 246
 67.480 231
 67.500 213
 67.520 237
 67.540 219
 67.560 265
 67.580 228
 67.600 249
 67.620 225
 67.640 222
 67.660 216
 67.680 219
 67.700 237
 67.720 231
 67.740 231
 67.760 210
 67.780 256
 67.800 231
 67.820 249
 67.840 249
 67.860 246
 67.880 234
 67.900 240
 67.920 231
 67.940 246
 67.960 240
 67.980 249
 68.000 213
 68.020 225
 68.040 240
 68.060 228
 68.080 240
 68.100 231
 68.120 249
 68.140 219
 68.160 198
 68.180 207
 68.200 252
 68.220 225
 68.240 234
 68.260 234
 68.280 246
 68.300 234
 68.320 249
 68.340 249
 68.360 243
 68.380 234
 68.400 213
 68.420 234
 68.440 234
 68.460 249
 68.480 210
 68.500 262
 68.520 228
 68.540 225
 68.560 228
 68.580 240
 68.600 216
 68.620 228
 68.640 237
 68.660 225
 68.680 210
 68.700 243
 68.720 237
 68.740 240
 68.760 249
 68.780 213
 68.800 262
 68.820 231
 68.840 228
 68.860 237
 68.880 216
 68.900 216
 68.920 219
 68.940 207
 68.960 237
 68.980 246
 69.000 243
 69.020 216
 69.040 225
 69.060 237
 69.080 262
 69.100 249
 69.120 219
 69.140 216
 69.160 240
 69.180 252
 69.200 259
 69.220 225
 69.240 243
 69.260 237
 69.280 225
 69.300 240
 69.320 231
 69.340 234
 69.360 231
 69.380 204
 69.400 201
 69.420 222
 69.440 240
 69.460 256
 69.480 268
 69.500 243
 69.520 213
 69.540 262
 69.560 243
 69.580 210
 69.600 225
 69.620 225
 69.640 252
 69.660 219
 69.680 237
 69.700 210
 69.720 213
 69.740 240
 69.760 252
 69.780 240
 69.800 225
 69.820 228
 69.840 228
 69.860 228
 69.880 240
 69.900 201
 69.920 216
 69.940 237
 69.960 222
 69.980 213
 70.000 246
 70.020 234
 70.040 222
 70.060 268
 70.080 262
 70.100 243
 70.120 243
 70.140 240
 70.160 228
 70.180 249
 70.200 225
 70.220 228
 70.240 237
 70.260 231
 70.280 246
 70.300 222
 70.320 213
 70.340 234
 70.360 246
 70.380 262
 70.400 243
 70.420 240
 70.440 240
 70.460 246
 70.480 246
 70.500 219
 70.520 225
 70.540 246
 70.560 252
 70.580 210
 70.600 237
 70.620 249
 70.640 228
 70.660 262
 70.680 249
 70.700 228
 70.720 219
 70.740 228
 70.760 237
 70.780 228
 70.800 234
 70.820 234
 70.840 265
 70.860 234
 70.880 249
 70.900 246
 70.920 249
 70.940 243
 70.960 204
 70.980 237
 71.000 216
 71.020 243
 71.040 225
 71.060 240
 71.080 234
 71.100 225
 71.120 222
 71.140 225
 71.160 252
 71.180 234
 71.200 243
 71.220 262
 71.240 243
 71.260 246
 71.280 228
 71.300 246
 71.320 237
 71.340 231
 71.360 249
 71.380 246
 71.400 219
 71.420 259
 71.440 246
 71.460 275
 71.480 285
 71.500 225
 71.520 246
 71.540 252
 71.560 243
 71.580 243
 71.600 216
 71.620 237
 71.640 278
 71.660 252
 71.680 231
 71.700 222
 71.720 228
 71.740 225
 71.760 240
 71.780 246
 71.800 231
 71.820 228
 71.840 237
 71.860 234
 71.880 249
 71.900 225
 71.920 219
 71.940 225
 71.960 265
 71.980 237
 72.000 252
 72.020 246
 72.040 225
 72.060 231
 72.080 222
 72.100 272
 72.120 213
 72.140 240
 72.160 259
 72.180 228
 72.200 237
 72.220 249
 72.240 222
 72.260 219
 72.280 256
 72.300 222
 72.320 234
 72.340 216
 72.360 237
 72.380 225
 72.400 231
 72.420 216
 72.440 228
 72.460 207
 72.480 237
 72.500 240
 72.520 240
 72.540 252
 72.560 231
 72.580 231
 72.600 237
 72.620 222
 72.640 234
 72.660 265
 72.680 231
 72.700 256
 72.720 228
 72.740 243
 72.760 249
 72.780 219
 72.800 225
 72.820 237
 72.840 219
 72.860 249
 72.880 256
 72.900 228
 72.920 240
 72.940 225
 72.960 259
 72.980 256
 73.000 246
 73.020 234
 73.040 222
 73.060 222
 73.080 231
 73.100 246
 73.120 234
 73.140 225
 73.160 228
 73.180 231
 73.200 234
 73.220 234
 73.240 231
 73.260 222
 73.280 246
 73.300 268
 73.320 237
 73.340 210
 73.360 243
 73.380 246
 73.400 243
 73.420 210
 73.440 231
 73.460 246
 73.480 249
 73.500 243
 73.520 237
 73.540 246
 73.560 231
 73.580 240
 73.600 252
 73.620 231
 73.640 246
 73.660 222
 73.680 237
 73.700 249
 73.720 231
 73.740 213
 73.760 240
 73.780 231
 73.800 216
 73.820 216
 73.840 246
 73.860 252
 73.880 259
 73.900 222
 73.920 231
 73.940 262
 73.960 246
 73.980 219
 74.000 262
 74.020 231
 74.040 275
 74.060 225
 74.080 243
 74.100 234
 74.120 252
 74.140 225
 74.160 275
 74.180 246
 74.200 246
 74.220 240
 74.240 249
 74.260 243
 74.280 228
 74.300 222
 74.320 228
 74.340 256
 74.360 259
 74.380 219
 74.400 240
 74.420 219
 74.440 240
 74.460 213
 74.480 231
 74.500 237
 74.520 237
 74.540 243
 74.560 246
 74.580 243
 74.600 243
 74.620 240
 74.640 237
 74.660 228
 74.680 213
 74.700 246
 74.720 256
 74.740 246
 74.760 234
 74.780 240
 74.800 231
 74.820 237
 74.840 225
 74.860 231
 74.880 231
 74.900 234
 74.920 243
 74.940 246
 74.960 225
 74.980 252
 75.000 259
 75.020 246
 75.040 237
 75.060 246
 75.080 219
 75.100 228
 75.120 246
 75.140 219
 75.160 187
 75.180 228
 75.200 237
 75.220 240
 75.240 219
 75.260 216
 75.280 240
 75.300 216
 75.320 231
 75.340 213
 75.360 246
 75.380 225
 75.400 228
 75.420 249
 75.440 213
 75.460 231
 75.480 228
 75.500 262
 75.520 222
 75.540 231
 75.560 234
 75.580 272
 75.600 228
 75.620 252
 75.640 246
 75.660 268
 75.680 213
 75.700 262
 75.720 246
 75.740 225
 75.760 237
 75.780 256
 75.800 256
 75.820 252
 75.840 210
 75.860 246
 75.880 198
 75.900 225
 75.920 231
 75.940 246
 75.960 225
 75.980 219
 76.000 231
 76.020 237
 76.040 231
 76.060 259
 76.080 219
 76.100 228
 76.120 207
 76.140 231
 76.160 228
 76.180 213
 76.200 249
 76.220 219
 76.240 216
 76.260 237
 76.280 237
 76.300 219
 76.320 219
 76.340 252
 76.360 234
 76.380 216
 76.400 219
 76.420 225
 76.440 249
 76.460 210
 76.480 231
 76.500 237
 76.520 228
 76.540 249
 76.560 246
 76.580 219
 76.600 231
 76.620 222
 76.640 256
 76.660 234
 76.680 222
 76.700 237
 76.720 228
 76.740 231
 76.760 262
 76.780 219
 76.800 234
 76.820 228
 76.840 228
 76.860 198
 76.880 249
 76.900 228
 76.920 256
 76.940 234
 76.960 207
 76.980 231
 77.000 216
 77.020 243
 77.040 207
 77.060 249
 77.080 243
 77.100 222
 77.120 219
 77.140 234
 77.160 225
 77.180 225
 77.200 249
 77.220 207
 77.240 225
 77.260 234
 77.280 234
 77.300 225
 77.320 237
 77.340 222
 77.360 222
 77.380 262
 77.400 201
 77.420 216
 77.440 237
 77.460 222
 77.480 237
 77.500 213
 77.520 246
 77.540 207
 77.560 237
 77.580 216
 77.600 207
 77.620 222
 77.640 198
 77.660 231
 77.680 243
 77.700 228
 77.720 246
 77.740 246
 77.760 210
 77.780 234
 77.800 228
 77.820 231
 77.840 240
 77.860 201
 77.880 246
 77.900 219
 77.920 243
 77.940 219
 77.960 201
 77.980 222
 78.000 246
 78.020 243
 78.040 219
 78.060 249
 78.080 234
 78.100 256
 78.120 228
 78.140 198
 78.160 213
 78.180 243
 78.200 268
 78.220 219
 78.240 246
 78.260 249
 78.280 225
 78.300 201
 78.320 216
 78.340 225
 78.360 231
 78.380 228
 78.400 222
 78.420 222
 78.440 198
 78.460 259
 78.480 231
 78.500 207
 78.520 231
 78.540 225
 78.560 228
 78.580 234
 78.600 198
 78.620 252
 78.640 231
 78.660 243
 78.680 228
 78.700 216
 78.720 243
 78.740 252
 78.760 219
 78.780 222
 78.800 225
 78.820 219
 78.840 252
 78.860 240
 78.880 243
 78.900 237
 78.920 252
 78.940 219
 78.960 243
 78.980 219
 79.000 219
 79.020 198
 79.040 204
 79.060 234
 79.080 219
 79.100 210
 79.120 259
 79.140 207
 79.160 240
 79.180 231
 79.200 207
 79.220 225
 79.240 225
 79.260 219
 79.280 198
 79.300 246
 79.320 213
 79.340 216
 79.360 234
 79.380 240
 79.400 240
 79.420 201
 79.440 219
 79.460 225
 79.480 231
 79.500 231
 79.520 234
 79.540 231
 79.560 231
 79.580 237
 79.600 219
 79.620 234
 79.640 231
 79.660 231
 79.680 213
 79.700 219
 79.720 231
 79.740 252
 79.760 222
 79.780 210
 79.800 219
 79.820 246
 79.840 234
 79.860 234
 79.880 231
 79.900 234
 79.920 246
 79.940 231
 79.960 237
 79.980 207
 80.000 225
 80.020 222
 80.040 210
 80.060 225
 80.080 219
 80.100 201
 80.120 222
 80.140 216
 80.160 193
 80.180 222
 80.200 228
 80.220 234
 80.240 240
 80.260 222
 80.280 246
 80.300 228
 80.320 207
 80.340 213
 80.360 225
 80.380 234
 80.400 216
 80.420 237
 80.440 228
 80.460 213
 80.480 219
 80.500 213
 80.520 252
 80.540 216
 80.560 243
 80.580 228
 80.600 228
 80.620 216
 80.640 222
 80.660 240
 80.680 210
 80.700 237
 80.720 231
 80.740 219
 80.760 213
 80.780 228
 80.800 225
 80.820 222
 80.840 213
 80.860 219
 80.880 198
 80.900 234
 80.920 216
 80.940 246
 80.960 237
 80.980 204
 81.000 222
 81.020 204
 81.040 216
 81.060 225
 81.080 213
 81.100 262
 81.120 210
 81.140 210
 81.160 204
 81.180 237
 81.200 201
 81.220 207
 81.240 243
 81.260 210
 81.280 234
 81.300 237
 81.320 222
 81.340 210
 81.360 246
 81.380 231
 81.400 193
 81.420 207
 81.440 237
 81.460 243
 81.480 213
 81.500 234
 81.520 222
 81.540 216
 81.560 216
 81.580 207
 81.600 196
 81.620 228
 81.640 225
 81.660 240
 81.680 213
 81.700 207
 81.720 210
 81.740 210
 81.760 231
 81.780 225
 81.800 213
 81.820 198
 81.840 207
 81.860 216
 81.880 219
 81.900 249
 81.920 225
 81.940 210
 81.960 216
 81.980 225
 82.000 219
 82.020 204
 82.040 193
 82.060 219
 82.080 187
 82.100 225
 82.120 213
 82.140 225
 82.160 213
 82.180 228
 82.200 210
 82.220 222
 82.240 213
 82.260 207
 82.280 228
 82.300 222
 82.320 207
 82.340 231
 82.360 216
 82.380 219
 82.400 237
 82.420 231
 82.440 231
 82.460 207
 82.480 204
 82.500 207
 82.520 201
 82.540 228
 82.560 219
 82.580 207
 82.600 216
 82.620 213
 82.640 198
 82.660 216
 82.680 201
 82.700 216
 82.720 228
 82.740 234
 82.760 213
 82.780 210
 82.800 198
 82.820 228
 82.840 187
 82.860 225
 82.880 190
 82.900 204
 82.920 240
 82.940 234
 82.960 196
 82.980 228
 83.000 225
 83.020 222
 83.040 234
 83.060 213
 83.080 190
 83.100 243
 83.120 228
 83.140 198
 83.160 225
 83.180 222
 83.200 213
 83.220 198
 83.240 225
 83.260 240
 83.280 222
 83.300 207
 83.320 204
 83.340 213
 83.360 219
 83.380 201
 83.400 210
 83.420 213
 83.440 207
 83.460 196
 83.480 207
 83.500 222
 83.520 222
 83.540 222
 83.560 234
 83.580 210
 83.600 222
 83.620 196
 83.640 201
 83.660 228
 83.680 216
 83.700 207
 83.720 198
 83.740 216
 83.760 207
 83.780 225
 83.800 207
 83.820 222
 83.840 171
 83.860 219
 83.880 216
 83.900 204
 83.920 216
 83.940 198
 83.960 198
 83.980 216
 84.000 222
 84.020 216
 84.040 193
 84.060 213
 84.080 204
 84.100 196
 84.120 190
 84.140 193
 84.160 182
 84.180 210
 84.200 187
 84.220 216
 84.240 196
 84.260 216
 84.280 201
 84.300 210
 84.320 228
 84.340 204
 84.360 225
 84.380 207
 84.400 210
 84.420 201
 84.440 187
 84.460 246
 84.480 216
 84.500 228
 84.520 213
 84.540 216
 84.560 207
 84.580 228
 84.600 190
 84.620 210
 84.640 204
 84.660 216
 84.680 228
 84.700 207
 84.720 201
 84.740 228
 84.760 222
 84.780 196
 84.800 222
 84.820 213
 84.840 204
 84.860 196
 84.880 182
 84.900 198
 84.920 204
 84.940 198
 84.960 204
 84.980 222
 85.000 201
 85.020 213
 85.040 171
 85.060 196
 85.080 196
 85.100 193
 85.120 207
 85.140 210
 85.160 207
 85.180 193
 85.200 210
 85.220 187
 85.240 240
 85.260 204
 85.280 201
 85.300 196
 85.320 210
 85.340 210
 85.360 219
 85.380 187
 85.400 198
 85.420 182
 85.440 193
 85.460 190
 85.480 196
 85.500 182
 85.520 190
 85.540 216
 85.560 196
 85.580 198
 85.600 196
 85.620 184
 85.640 198
 85.660 231
 85.680 201
 85.700 201
 85.720 219
 85.740 216
 85.760 201
 85.780 196
 85.800 196
 85.820 198
 85.840 193
 85.860 182
 85.880 210
 85.900 198
 85.920 171
 85.940 210
 85.960 176
 85.980 210
 86.000 196
 86.020 193
 86.040 179
 86.060 198
 86.080 193
 86.100 196
 86.120 207
 86.140 182
 86.160 187
 86.180 207
 86.200 216
 86.220 190
 86.240 207
 86.260 207
 86.280 234
 86.300 201
 86.320 216
 86.340 198
 86.360 196
 86.380 196
 86.400 179
 86.420 196
 86.440 196
 86.460 210
 86.480 184
 86.500 184
 86.520 182
 86.540 193
 86.560 201
 86.580 213
 86.600 210
 86.620 222
 86.640 193
 86.660 184
 86.680 193
 86.700 196
 86.720 184
 86.740 201
 86.760 179
 86.780 196
 86.800 196
 86.820 204
 86.840 184
 86.860 207
 86.880 187
 86.900 201
 86.920 198
 86.940 193
 86.960 213
 86.980 210
 87.000 169
 87.020 204
 87.040 210
 87.060 213
 87.080 174
 87.100 216
 87.120 187
 87.140 182
 87.160 182
 87.180 198
 87.200 198
 87.220 158
 87.240 187
 87.260 184
 87.280 222
 87.300 196
 87.320 158
 87.340 196
 87.360 176
 87.380 225
 87.400 193
 87.420 201
 87.440 201
 87.460 201
 87.480 187
 87.500 184
 87.520 176
 87.540 184
 87.560 163
 87.580 184
 87.600 174
 87.620 196
 87.640 201
 87.660 204
 87.680 174
 87.700 196
 87.720 176
 87.740 207
 87.760 182
 87.780 210
 87.800 182
 87.820 187
 87.840 179
 87.860 174
 87.880 176
 87.900 190
 87.920 182
 87.940 207
 87.960 222
 87.980 219
 88.000 176
 88.020 166
 88.040 207
 88.060 198
 88.080 222
 88.100 166
 88.120 158
 88.140 201
 88.160 210
 88.180 187
 88.200 176
 88.220 190
 88.240 193
 88.260 174
 88.280 187
 88.300 166
 88.320 207
 88.340 171
 88.360 174
 88.380 187
 88.400 171
 88.420 176
 88.440 210
 88.460 187
 88.480 171
 88.500 187
 88.520 176
 88.540 176
 88.560 184
 88.580 176
 88.600 163
 88.620 166
 88.640 169
 88.660 193
 88.680 182
 88.700 187
 88.720 201
 88.740 176
 88.760 176
 88.780 184
 88.800 166
 88.820 187
 88.840 187
 88.860 182
 88.880 174
 88.900 163
 88.920 176
 88.940 193
 88.960 174
 88.980 222
 89.000 166
 89.020 174
 89.040 182
 89.060 193
 89.080 196
 89.100 179
 89.120 158
 89.140 176
 89.160 193
 89.180 207
 89.200 187
 89.220 193
 89.240 187
 89.260 182
 89.280 201
 89.300 158
 89.320 193
 89.340 190
 89.360 187
 89.380 174
 89.400 207
 89.420 182
 89.440 161
 89.460 190
 89.480 196
 89.500 193
 89.520 176
 89.540 207
 89.560 184
 89.580 176
 89.600 182
 89.620 179
 89.640 187
 89.660 184
 89.680 176
 89.700 158
 89.720 169
 89.740 176
 89.760 196
 89.780 169
 89.800 193
 89.820 176
 89.840 169
 89.860 171
 89.880 190
 89.900 190
 89.920 169
 89.940 179
 89.960 187
 89.980 169
 90.000 190
 90.020 193
 90.040 190
 90.060 198
 90.080 196
 90.100 193
 90.120 169
 90.140 196
 90.160 190
 90.180 193
 90.200 174
 90.220 201
 90.240 182
 90.260 196
 90.280 156
 90.300 187
 90.320 184
 90.340 190
 90.360 174
 90.380 207
 90.400 174
 90.420 193
 90.440 169
 90.460 171
 90.480 171
 90.500 184
 90.520 169
 90.540 179
 90.560 163
 90.580 166
 90.600 158
 90.620 196
 90.640 190
 90.660 169
 90.680 166
 90.700 184
 90.720 176
 90.740 187
 90.760 184
 90.780 176
 90.800 196
 90.820 166
 90.840 158
 90.860 166
 90.880 198
 90.900 161
 90.920 187
 90.940 182
 90.960 201
 90.980 169
 91.000 198
 91.020 198
 91.040 158
 91.060 179
 91.080 179
 91.100 174
 91.120 163
 91.140 176
 91.160 182
 91.180 176
 91.200 176
 91.220 184
 91.240 161
 91.260 182
 91.280 176
 91.300 176
 91.320 182
 91.340 184
 91.360 166
 91.380 163
 91.400 169
 91.420 174
 91.440 174
 91.460 148
 91.480 182
 91.500 171
 91.520 158
 91.540 171
 91.560 184
 91.580 174
 91.600 163
 91.620 169
 91.640 176
 91.660 163
 91.680 171
 91.700 166
 91.720 161
 91.740 174
 91.760 169
 91.780 184
 91.800 176
 91.820 151
 91.840 196
 91.860 163
 91.880 169
 91.900 196
 91.920 174
 91.940 171
 91.960 161
 91.980 148
 92.000 187
 92.020 163
 92.040 169
 92.060 174
 92.080 176
 92.100 182
 92.120 158
 92.140 193
 92.160 176
 92.180 174
 92.200 198
 92.220 169
 92.240 158
 92.260 166
 92.280 161
 92.300 141
 92.320 174
 92.340 204
 92.360 179
 92.380 144
 92.400 176
 92.420 169
 92.440 161
 92.460 182
 92.480 166
 92.500 174
 92.520 184
 92.540 174
 92.560 148
 92.580 169
 92.600 158
 92.620 158
 92.640 184
 92.660 166
 92.680 158
 92.700 190
 92.720 148
 92.740 171
 92.760 169
 92.780 166
 92.800 161
 92.820 184
 92.840 151
 92.860 169
 92.880 166
 92.900 169
 92.920 174
 92.940 190
 92.960 163
 92.980 174
 93.000 163
 93.020 158
 93.040 174
 93.060 163
 93.080 158
 93.100 136
 93.120 139
 93.140 146
 93.160 169
 93.180 158
 93.200 158
 93.220 158
 93.240 163
 93.260 161
 93.280 158
 93.300 153
 93.320 171
 93.340 169
 93.360 134
 93.380 163
 93.400 153
 93.420 148
 93.440 193
 93.460 166
 93.480 174
 93.500 151
 93.520 153
 93.540 146
 93.560 148
 93.580 151
 93.600 169
 93.620 144
 93.640 163
 93.660 171
 93.680 169
 93.700 176
 93.720 141
 93.740 169
 93.760 163
 93.780 144
 93.800 176
 93.820 166
 93.840 171
 93.860 176
 93.880 174
 93.900 163
 93.920 163
 93.940 166
 93.960 179
 93.980 179
 94.000 182
 94.020 171
 94.040 174
 94.060 153
 94.080 171
 94.100 144
 94.120 187
 94.140 148
 94.160 163
 94.180 169
 94.200 163
 94.220 166
 94.240 153
 94.260 163
 94.280 174
 94.300 141
 94.320 153
 94.340 153
 94.360 156
 94.380 156
 94.400 148
 94.420 166
 94.440 156
 94.460 169
 94.480 158
 94.500 153
 94.520 179
 94.540 144
 94.560 139
 94.580 161
 94.600 166
 94.620 158
 94.640 176
 94.660 174
 94.680 144
 94.700 148
 94.720 153
 94.740 146
 94.760 148
 94.780 158
 94.800 148
 94.820 169
 94.840 171
 94.860 163
 94.880 158
 94.900 144
 94.920 176
 94.940 163
 94.960 148
 94.980 153
 95.000 174
 95.020 161
 95.040 158
 95.060 148
 95.080 187
 95.100 151
 95.120 153
 95.140 156
 95.160 153
 95.180 153
 95.200 139
 95.220 156
 95.240 182
 95.260 171
 95.280 146
 95.300 146
 95.320 148
 95.340 151
 95.360 148
 95.380 158
 95.400 161
 95.420 161
 95.440 141
 95.460 163
 95.480 174
 95.500 136
 95.520 148
 95.540 153
 95.560 169
 95.580 169
 95.600 161
 95.620 163
 95.640 163
 95.660 158
 95.680 148
 95.700 129
 95.720 153
 95.740 169
 95.760 158
 95.780 132
 95.800 153
 95.820 153
 95.840 166
 95.860 146
 95.880 158
 95.900 176
 95.920 146
 95.940 156
 95.960 153
 95.980 158
 96.000 158
 96.020 148
 96.040 141
 96.060 156
 96.080 156
 96.100 158
 96.120 163
 96.140 171
 96.160 153
 96.180 148
 96.200 151
 96.220 148
 96.240 174
 96.260 158
 96.280 166
 96.300 139
 96.320 144
 96.340 166
 96.360 161
 96.380 156
 96.400 163
 96.420 171
 96.440 144
 96.460 129
 96.480 161
 96.500 146
 96.520 174
 96.540 148
 96.560 158
 96.580 136
 96.600 169
 96.620 141
 96.640 127
 96.660 139
 96.680 136
 96.700 166
 96.720 153
 96.740 148
 96.760 144
 96.780 146
 96.800 161
 96.820 158
 96.840 153
 96.860 166
 96.880 125
 96.900 158
 96.920 153
 96.940 193
 96.960 141
 96.980 151
 97.000 169
 97.020 163
 97.040 153
 97.060 171
 97.080 158
 97.100 144
 97.120 153
 97.140 129
 97.160 171
 97.180 174
 97.200 148
 97.220 163
 97.240 158
 97.260 136
 97.280 153
 97.300 144
 97.320 146
 97.340 161
 97.360 144
 97.380 156
 97.400 148
 97.420 163
 97.440 148
 97.460 158
 97.480 156
 97.500 136
 97.520 153
 97.540 156
 97.560 158
 97.580 148
 97.600 153
 97.620 151
 97.640 158
 97.660 146
 97.680 141
 97.700 132
 97.720 136
 97.740 153
 97.760 169
 97.780 141
 97.800 141
 97.820 151
 97.840 139
 97.860 151
 97.880 144
 97.900 141
 97.920 148
 97.940 153
 97.960 169
 97.980 141
 98.000 158
 98.020 161
 98.040 156
 98.060 166
 98.080 158
 98.100 144
 98.120 158
 98.140 134
 98.160 134
 98.180 148
 98.200 141
 98.220 123
 98.240 144
 98.260 148
 98.280 151
 98.300 166
 98.320 163
 98.340 144
 98.360 123
 98.380 148
 98.400 134
 98.420 139
 98.440 148
 98.460 148
 98.480 169
 98.500 136
 98.520 141
 98.540 151
 98.560 151
 98.580 132
 98.600 136
 98.620 174
 98.640 163
 98.660 161
 98.680 158
 98.700 153
 98.720 161
 98.740 163
 98.760 123
 98.780 158
 98.800 144
 98.820 156
 98.840 156
 98.860 146
 98.880 139
 98.900 148
 98.920 163
 98.940 141
 98.960 153
 98.980 144
 99.000 144
 99.020 139
 99.040 166
 99.060 151
 99.080 146
 99.100 139
 99.120 158
 99.140 163
 99.160 156
 99.180 136
 99.200 151
 99.220 161
 99.240 136
 99.260 125
 99.280 129
 99.300 151
 99.320 139
 99.340 163
 99.360 148
 99.380 125
 99.400 136
 99.420 144
 99.440 153
 99.460 151
 99.480 144
 99.500 144
 99.520 139
 99.540 163
 99.560 139
 99.580 148
 99.600 158
 99.620 127
 99.640 141
 99.660 146
 99.680 144
 99.700 151
 99.720 161
 99.740 163
 99.760 158
 99.780 158
 99.800 156
 99.820 141
 99.840 148
 99.860 129
 99.880 151
 99.900 144
 99.920 153
 99.940 158
 99.960 141
 99.980 134
100.000 158
