  5.000 169
  5.020 161
  5.040 169
  5.060 171
  5.080 171
  5.100 184
  5.120 153
  5.140 153
  5.160 190
  5.180 184
  5.200 187
  5.220 163
  5.240 148
  5.260 158
  5.280 176
  5.300 174
  5.320 158
  5.340 176
  5.360 163
  5.380 166
  5.400 174
  5.420 166
  5.440 179
  5.460 148
  5.480 158
  5.500 174
  5.520 184
  5.540 139
  5.560 161
  5.580 129
  5.600 176
  5.620 144
  5.640 136
  5.660 174
  5.680 161
  5.700 156
  5.720 163
  5.740 153
  5.760 156
  5.780 148
  5.800 156
  5.820 141
  5.840 153
  5.860 144
  5.880 163
  5.900 148
  5.920 156
  5.940 153
  5.960 169
  5.980 161
  6.000 139
  6.020 171
  6.040 158
  6.060 148
  6.080 153
  6.100 156
  6.120 153
  6.140 141
  6.160 169
  6.180 166
  6.200 163
  6.220 153
  6.240 158
  6.260 139
  6.280 174
  6.300 151
  6.320 134
  6.340 148
  6.360 144
  6.380 153
  6.400 158
  6.420 132
  6.440 146
  6.460 153
  6.480 163
  6.500 158
  6.520 158
  6.540 166
  6.560 141
  6.580 176
  6.600 132
  6.620 153
  6.640 136
  6.660 139
  6.680 134
  6.700 125
  6.720 144
  6.740 132
  6.760 163
  6.780 156
  6.800 134
  6.820 146
  6.840 136
  6.860 132
  6.880 132
  6.900 129
  6.920 136
  6.940 144
  6.960 136
  6.980 148
  7.000 163
  7.020 129
  7.040 136
  7.060 134
  7.080 163
  7.100 127
  7.120 116
  7.140 144
  7.160 134
  7.180 144
  7.200 129
  7.220 141
  7.240 132
  7.260 121
  7.280 153
  7.300 134
  7.320 127
  7.340 141
  7.360 161
  7.380 144
  7.400 136
  7.420 144
  7.440 125
  7.460 156
  7.480 158
  7.500 174
  7.520 182
  7.540 171
  7.560 187
  7.580 148
  7.600 134
  7.620 153
  7.640 148
  7.660 148
  7.680 176
  7.700 153
  7.720 161
  7.740 179
  7.760 213
  7.780 187
  7.800 237
  7.820 275
  7.840 252
  7.860 265
  7.880 275
  7.900 262
  7.920 306
  7.940 357
  7.960 412
  7.980 556
  8.000 686
  8.020 761
  8.040 930
  8.060 1075
  8.080 1281
  8.100 1149
  8.120 954
  8.140 900
  8.160 1288
  8.180 1823
  8.200 2550
  8.220 3249
  8.240 3806
  8.260 4583
  8.280 7072
  8.300 13548
  8.320 21667
  8.340 23286
  8.360 17556
  8.380 10281
  8.400 5387
  8.420 2520
  8.440 1030
  8.460 453
  8.480 320
  8.500 285
  8.520 213
  8.540 219
  8.560 196
  8.580 182
  8.600 174
  8.620 146
  8.640 144
  8.660 136
  8.680 132
  8.700 118
  8.720 148
  8.740 141
  8.760 129
  8.780 139
  8.800 141
  8.820 127
  8.840 132
  8.860 134
  8.880 151
  8.900 136
  8.920 129
  8.940 108
  8.960 139
  8.980 127
  9.000 125
  9.020 129
  9.040 121
  9.060 110
  9.080 121
  9.100 121
  9.120 136
  9.140 118
  9.160 118
  9.180 110
  9.200 96
  9.220 132
  9.240 132
  9.260 132
  9.280 121
  9.300 110
  9.320 116
  9.340 132
  9.360 110
  9.380 118
  9.400 106
  9.420 118
  9.440 123
  9.460 132
  9.480 112
  9.500 121
  9.520 110
  9.540 125
  9.560 108
  9.580 125
  9.600 134
  9.620 125
  9.640 134
  9.660 102
  9.680 121
  9.700 118
  9.720 114
  9.740 108
  9.760 116
  9.780 121
  9.800 121
  9.820 125
  9.840 123
  9.860 136
  9.880 114
  9.900 139
  9.920 118
  9.940 108
  9.960 114
  9.980 132
 10.000 134
 10.020 118
 10.040 112
 10.060 127
 10.080 141
 10.100 141
 10.120 127
 10.140 100
 10.160 132
 10.180 141
 10.200 148
 10.220 118
 10.240 134
 10.260 108
 10.280 136
 10.300 118
 10.320 110
 10.340 104
 10.360 156
 10.380 112
 10.400 121
 10.420 123
 10.440 127
 10.460 132
 10.480 153
 10.500 151
 10.520 153
 10.540 174
 10.560 171
 10.580 166
 10.600 141
 10.620 134
 10.640 108
 10.660 112
 10.680 161
 10.700 136
 10.720 127
 10.740 123
 10.760 127
 10.780 139
 10.800 110
 10.820 134
 10.840 121
 10.860 148
 10.880 148
 10.900 153
 10.920 153
 10.940 161
 10.960 151
 10.980 136
 11.000 134
 11.020 169
 11.040 158
 11.060 187
 11.080 174
 11.100 213
 11.120 210
 11.140 216
 11.160 306
 11.180 372
 11.200 542
 11.220 576
 11.240 655
 11.260 702
 11.280 640
 11.300 547
 11.320 600
 11.340 655
 11.360 686
 11.380 767
 11.400 900
 11.420 1069
 11.440 1339
 11.460 1391
 11.480 1648
 11.500 1772
 11.520 2323
 11.540 3636
 11.560 6740
 11.580 11837
 11.600 19404
 11.620 29480
 11.640 37947
 11.660 42683
 11.680 41127
 11.700 32761
 11.720 21432
 11.740 10941
 11.760 4914
 11.780 2143
 11.800 1004
 11.820 556
 11.840 529
 11.860 420
 11.880 420
 11.900 384
 11.920 368
 11.940 342
 11.960 299
 11.980 249
 12.000 249
 12.020 179
 12.040 163
 12.060 169
 12.080 193
 12.100 163
 12.120 179
 12.140 163
 12.160 132
 12.180 158
 12.200 169
 12.220 148
 12.240 158
 12.260 179
 12.280 176
 12.300 182
 12.320 196
 12.340 234
 12.360 272
 12.380 345
 12.400 380
 12.420 488
 12.440 457
 12.460 453
 12.480 428
 12.500 470
 12.520 640
 12.540 888
 12.560 1339
 12.580 1772
 12.600 2070
 12.620 2125
 12.640 1823
 12.660 1459
 12.680 1324
 12.700 1705
 12.720 2125
 12.740 2590
 12.760 2480
 12.780 2199
 12.800 1738
 12.820 1267
 12.840 930
 12.860 718
 12.880 645
 12.900 686
 12.920 800
 12.940 829
 12.960 1030
 12.980 1176
 13.000 1406
 13.020 1544
 13.040 1936
 13.060 2601
 13.080 3856
 13.100 5867
 13.120 7673
 13.140 9082
 13.160 9158
 13.180 8118
 13.200 6099
 13.220 3721
 13.240 1755
 13.260 750
 13.280 364
 13.300 259
 13.320 222
 13.340 234
 13.360 249
 13.380 240
 13.400 249
 13.420 228
 13.440 201
 13.460 176
 13.480 182
 13.500 161
 13.520 121
 13.540 144
 13.560 134
 13.580 144
 13.600 121
 13.620 132
 13.640 118
 13.660 125
 13.680 118
 13.700 134
 13.720 106
 13.740 125
 13.760 125
 13.780 116
 13.800 121
 13.820 125
 13.840 112
 13.860 127
 13.880 127
 13.900 108
 13.920 123
 13.940 123
 13.960 129
 13.980 112
 14.000 134
 14.020 127
 14.040 144
 14.060 114
 14.080 118
 14.100 134
 14.120 134
 14.140 116
 14.160 144
 14.180 112
 14.200 129
 14.220 125
 14.240 132
 14.260 121
 14.280 121
 14.300 106
 14.320 112
 14.340 121
 14.360 123
 14.380 136
 14.400 114
 14.420 129
 14.440 110
 14.460 139
 14.480 118
 14.500 129
 14.520 127
 14.540 114
 14.560 102
 14.580 123
 14.600 110
 14.620 118
 14.640 96
 14.660 125
 14.680 144
 14.700 129
 14.720 153
 14.740 118
 14.760 118
 14.780 141
 14.800 110
 14.820 121
 14.840 114
 14.860 125
 14.880 127
 14.900 125
 14.920 129
 14.940 141
 14.960 136
 14.980 166
 15.000 163
 15.020 163
 15.040 161
 15.060 151
 15.080 184
 15.100 234
 15.120 228
 15.140 265
 15.160 249
 15.180 256
 15.200 282
 15.220 302
 15.240 345
 15.260 380
 15.280 441
 15.300 542
 15.320 812
 15.340 998
 15.360 1089
 15.380 1169
 15.400 1296
 15.420 1528
 15.440 2323
 15.460 3069
 15.480 4006
 15.500 4788
 15.520 4844
 15.540 4212
 15.560 3180
 15.580 2052
 15.600 1115
 15.620 519
 15.640 289
 15.660 228
 15.680 228
 15.700 262
 15.720 252
 15.740 265
 15.760 228
 15.780 201
 15.800 184
 15.820 196
 15.840 210
 15.860 219
 15.880 243
 15.900 249
 15.920 196
 15.940 179
 15.960 166
 15.980 169
 16.000 153
 16.020 169
 16.040 201
 16.060 163
 16.080 219
 16.100 213
 16.120 231
 16.140 228
 16.160 265
 16.180 338
 16.200 338
 16.220 396
 16.240 538
 16.260 846
 16.280 906
 16.300 1095
 16.320 1036
 16.340 876
 16.360 702
 16.380 510
 16.400 484
 16.420 361
 16.440 412
 16.460 538
 16.480 841
 16.500 1135
 16.520 1324
 16.540 1303
 16.560 1142
 16.580 1011
 16.600 942
 16.620 1095
 16.640 1436
 16.660 2106
 16.680 3398
 16.700 6839
 16.720 11772
 16.740 14762
 16.760 13271
 16.780 9467
 16.800 4956
 16.820 2209
 16.840 817
 16.860 388
 16.880 285
 16.900 265
 16.920 210
 16.940 216
 16.960 187
 16.980 182
 17.000 176
 17.020 163
 17.040 169
 17.060 151
 17.080 171
 17.100 158
 17.120 161
 17.140 151
 17.160 141
 17.180 114
 17.200 118
 17.220 156
 17.240 141
 17.260 123
 17.280 144
 17.300 144
 17.320 161
 17.340 132
 17.360 132
 17.380 127
 17.400 148
 17.420 129
 17.440 141
 17.460 139
 17.480 166
 17.500 144
 17.520 129
 17.540 136
 17.560 127
 17.580 136
 17.600 125
 17.620 158
 17.640 148
 17.660 158
 17.680 158
 17.700 151
 17.720 169
 17.740 169
 17.760 156
 17.780 153
 17.800 156
 17.820 179
 17.840 174
 17.860 148
 17.880 176
 17.900 156
 17.920 163
 17.940 196
 17.960 246
 17.980 246
 18.000 259
 18.020 272
 18.040 349
 18.060 506
 18.080 470
 18.100 723
 18.120 841
 18.140 870
 18.160 835
 18.180 729
 18.200 470
 18.220 428
 18.240 306
 18.260 222
 18.280 237
 18.300 207
 18.320 240
 18.340 249
 18.360 252
 18.380 282
 18.400 295
 18.420 327
 18.440 324
 18.460 334
 18.480 357
 18.500 368
 18.520 561
 18.540 702
 18.560 870
 18.580 942
 18.600 1043
 18.620 1142
 18.640 1232
 18.660 1849
 18.680 2662
 18.700 3069
 18.720 3352
 18.740 3398
 18.760 3214
 18.780 3552
 18.800 3943
 18.820 4596
 18.840 5806
 18.860 6084
 18.880 6432
 18.900 6256
 18.920 5126
 18.940 3214
 18.960 1927
 18.980 1246
 19.000 484
 19.020 380
 19.040 327
 19.060 338
 19.080 295
 19.100 302
 19.120 349
 19.140 342
 19.160 353
 19.180 349
 19.200 408
 19.220 331
 19.240 404
 19.260 428
 19.280 561
 19.300 1036
 19.320 1713
 19.340 2043
 19.360 2218
 19.380 2284
 19.400 2025
 19.420 1789
 19.440 1672
 19.460 1640
 19.480 1664
 19.500 2052
 19.520 3237
 19.540 5256
 19.560 9158
 19.580 14932
 19.600 20277
 19.620 22410
 19.640 20306
 19.660 16281
 19.680 9721
 19.700 5461
 19.720 2520
 19.740 954
 19.760 533
 19.780 484
 19.800 408
 19.820 342
 19.840 338
 19.860 292
 19.880 299
 19.900 275
 19.920 262
 19.940 262
 19.960 256
 19.980 231
 20.000 252
 20.020 256
 20.040 231
 20.060 249
 20.080 243
 20.100 256
 20.120 295
 20.140 353
 20.160 327
 20.180 396
 20.200 368
 20.220 441
 20.240 462
 20.260 538
 20.280 620
 20.300 852
 20.320 936
 20.340 1024
 20.360 1069
 20.380 1082
 20.400 1049
 20.420 846
 20.440 723
 20.460 595
 20.480 519
 20.500 436
 20.520 497
 20.540 670
 20.560 864
 20.580 954
 20.600 1176
 20.620 1310
 20.640 1640
 20.660 2016
 20.680 2777
 20.700 3540
 20.720 4448
 20.740 5055
 20.760 5097
 20.780 4705
 20.800 3856
 20.820 3102
 20.840 2430
 20.860 1823
 20.880 1346
 20.900 1036
 20.920 739
 20.940 556
 20.960 404
 20.980 320
 21.000 256
 21.020 240
 21.040 228
 21.060 243
 21.080 204
 21.100 225
 21.120 228
 21.140 210
 21.160 243
 21.180 201
 21.200 182
 21.220 193
 21.240 222
 21.260 198
 21.280 182
 21.300 196
 21.320 187
 21.340 176
 21.360 182
 21.380 187
 21.400 179
 21.420 193
 21.440 171
 21.460 187
 21.480 196
 21.500 174
 21.520 190
 21.540 193
 21.560 198
 21.580 196
 21.600 207
 21.620 213
 21.640 196
 21.660 207
 21.680 222
 21.700 259
 21.720 259
 21.740 289
 21.760 309
 21.780 353
 21.800 404
 21.820 436
 21.840 445
 21.860 605
 21.880 876
 21.900 1482
 21.920 2391
 21.940 2937
 21.960 3124
 21.980 2948
 22.000 2809
 22.020 2256
 22.040 2061
 22.060 1780
 22.080 1225
 22.100 1004
 22.120 864
 22.140 566
 22.160 420
 22.180 368
 22.200 342
 22.220 353
 22.240 368
 22.260 420
 22.280 453
 22.300 420
 22.320 479
 22.340 600
 22.360 767
 22.380 846
 22.400 1190
 22.420 1944
 22.440 4844
 22.460 10060
 22.480 16002
 22.500 22560
 22.520 23932
 22.540 21286
 22.560 17556
 22.580 12012
 22.600 6922
 22.620 3564
 22.640 1616
 22.660 756
 22.680 470
 22.700 404
 22.720 316
 22.740 302
 22.760 324
 22.780 292
 22.800 278
 22.820 249
 22.840 268
 22.860 246
 22.880 222
 22.900 234
 22.920 240
 22.940 237
 22.960 246
 22.980 231
 23.000 262
 23.020 243
 23.040 364
 23.060 470
 23.080 561
 23.100 635
 23.120 605
 23.140 605
 23.160 501
 23.180 412
 23.200 309
 23.220 285
 23.240 285
 23.260 295
 23.280 306
 23.300 349
 23.320 428
 23.340 466
 23.360 640
 23.380 635
 23.400 676
 23.420 734
 23.440 712
 23.460 812
 23.480 894
 23.500 985
 23.520 918
 23.540 846
 23.560 1049
 23.580 876
 23.600 739
 23.620 670
 23.640 576
 23.660 376
 23.680 306
 23.700 272
 23.720 249
 23.740 219
 23.760 237
 23.780 228
 23.800 216
 23.820 237
 23.840 201
 23.860 204
 23.880 216
 23.900 210
 23.920 243
 23.940 240
 23.960 289
 23.980 320
 24.000 289
 24.020 338
 24.040 353
 24.060 320
 24.080 449
 24.100 372
 24.120 392
 24.140 416
 24.160 396
 24.180 353
 24.200 388
 24.220 445
 24.240 470
 24.260 492
 24.280 620
 24.300 852
 24.320 1036
 24.340 1075
 24.360 1128
 24.380 1049
 24.400 1011
 24.420 900
 24.440 823
 24.460 812
 24.480 918
 24.500 1108
 24.520 1361
 24.540 1632
 24.560 2025
 24.580 2237
 24.600 2672
 24.620 3226
 24.640 3708
 24.660 4290
 24.680 5012
 24.700 4816
 24.720 5372
 24.740 6006
 24.760 6006
 24.780 5852
 24.800 5806
 24.820 5431
 24.840 4251
 24.860 2819
 24.880 2284
 24.900 1640
 24.920 1149
 24.940 876
 24.960 918
 24.980 894
 25.000 973
 25.020 1108
 25.040 1451
 25.060 1576
 25.080 1747
 25.100 2043
 25.120 2352
 25.140 2672
 25.160 2926
 25.180 2840
 25.200 2937
 25.220 2862
 25.240 2621
 25.260 2401
 25.280 2007
 25.300 1656
 25.320 1253
 25.340 1036
 25.360 817
 25.380 595
 25.400 492
 25.420 466
 25.440 353
 25.460 338
 25.480 306
 25.500 292
 25.520 327
 25.540 302
 25.560 278
 25.580 295
 25.600 331
 25.620 313
 25.640 327
 25.660 262
 25.680 306
 25.700 278
 25.720 289
 25.740 295
 25.760 295
 25.780 309
 25.800 342
 25.820 342
 25.840 345
 25.860 388
 25.880 372
 25.900 372
 25.920 384
 25.940 361
 25.960 342
 25.980 295
 26.000 306
 26.020 299
 26.040 299
 26.060 309
 26.080 295
 26.100 353
 26.120 372
 26.140 364
 26.160 368
 26.180 316
 26.200 361
 26.220 342
 26.240 384
 26.260 357
 26.280 324
 26.300 338
 26.320 331
 26.340 364
 26.360 449
 26.380 686
 26.400 812
 26.420 800
 26.440 846
 26.460 823
 26.480 723
 26.500 650
 26.520 580
 26.540 457
 26.560 372
 26.580 302
 26.600 292
 26.620 272
 26.640 219
 26.660 225
 26.680 231
 26.700 259
 26.720 243
 26.740 234
 26.760 265
 26.780 278
 26.800 316
 26.820 313
 26.840 292
 26.860 256
 26.880 295
 26.900 316
 26.920 349
 26.940 380
 26.960 416
 26.980 384
 27.000 428
 27.020 432
 27.040 556
 27.060 691
 27.080 712
 27.100 812
 27.120 817
 27.140 707
 27.160 739
 27.180 812
 27.200 906
 27.220 823
 27.240 789
 27.260 812
 27.280 789
 27.300 734
 27.320 734
 27.340 707
 27.360 712
 27.380 729
 27.400 707
 27.420 712
 27.440 670
 27.460 556
 27.480 585
 27.500 571
 27.520 479
 27.540 462
 27.560 484
 27.580 492
 27.600 488
 27.620 470
 27.640 449
 27.660 436
 27.680 453
 27.700 388
 27.720 380
 27.740 331
 27.760 316
 27.780 246
 27.800 198
 27.820 225
 27.840 187
 27.860 182
 27.880 182
 27.900 204
 27.920 196
 27.940 166
 27.960 187
 27.980 174
 28.000 176
 28.020 171
 28.040 201
 28.060 158
 28.080 190
 28.100 198
 28.120 190
 28.140 237
 28.160 174
 28.180 216
 28.200 210
 28.220 201
 28.240 240
 28.260 225
 28.280 210
 28.300 228
 28.320 252
 28.340 275
 28.360 320
 28.380 392
 28.400 424
 28.420 445
 28.440 475
 28.460 466
 28.480 552
 28.500 610
 28.520 676
 28.540 650
 28.560 620
 28.580 605
 28.600 595
 28.620 585
 28.640 615
 28.660 610
 28.680 561
 28.700 533
 28.720 428
 28.740 380
 28.760 327
 28.780 292
 28.800 256
 28.820 198
 28.840 176
 28.860 196
 28.880 204
 28.900 179
 28.920 198
 28.940 184
 28.960 184
 28.980 174
 29.000 184
 29.020 201
 29.040 176
 29.060 193
 29.080 190
 29.100 207
 29.120 151
 29.140 171
 29.160 187
 29.180 193
 29.200 182
 29.220 169
 29.240 193
 29.260 169
 29.280 176
 29.300 193
 29.320 179
 29.340 176
 29.360 174
 29.380 201
 29.400 193
 29.420 187
 29.440 161
 29.460 184
 29.480 196
 29.500 190
 29.520 179
 29.540 161
 29.560 171
 29.580 198
 29.600 156
 29.620 166
 29.640 176
 29.660 187
 29.680 190
 29.700 174
 29.720 190
 29.740 196
 29.760 216
 29.780 198
 29.800 207
 29.820 179
 29.840 196
 29.860 207
 29.880 187
 29.900 213
 29.920 193
 29.940 207
 29.960 210
 29.980 198
 30.000 210
 30.020 234
 30.040 207
 30.060 216
 30.080 240
 30.100 234
 30.120 240
 30.140 249
 30.160 243
 30.180 275
 30.200 246
 30.220 222
 30.240 231
 30.260 237
 30.280 272
 30.300 285
 30.320 243
 30.340 275
 30.360 285
 30.380 313
 30.400 316
 30.420 349
 30.440 338
 30.460 357
 30.480 396
 30.500 533
 30.520 670
 30.540 772
 30.560 1011
 30.580 1169
 30.600 1075
 30.620 1017
 30.640 1122
 30.660 1056
 30.680 1004
 30.700 930
 30.720 691
 30.740 585
 30.760 625
 30.780 580
 30.800 547
 30.820 497
 30.840 585
 30.860 729
 30.880 1156
 30.900 1428
 30.920 1369
 30.940 1274
 30.960 1406
 30.980 1528
 31.000 1521
 31.020 1376
 31.040 1128
 31.060 948
 31.080 806
 31.100 686
 31.120 585
 31.140 453
 31.160 428
 31.180 453
 31.200 552
 31.220 829
 31.240 1183
 31.260 1474
 31.280 1689
 31.300 1664
 31.320 1874
 31.340 1713
 31.360 1451
 31.380 1142
 31.400 985
 31.420 734
 31.440 556
 31.460 441
 31.480 349
 31.500 331
 31.520 320
 31.540 324
 31.560 357
 31.580 357
 31.600 353
 31.620 368
 31.640 345
 31.660 380
 31.680 396
 31.700 420
 31.720 453
 31.740 630
 31.760 734
 31.780 739
 31.800 806
 31.820 930
 31.840 1115
 31.860 1149
 31.880 1421
 31.900 1640
 31.920 1918
 31.940 1998
 31.960 1713
 31.980 1346
 32.000 1310
 32.020 1183
 32.040 936
 32.060 660
 32.080 479
 32.100 416
 32.120 380
 32.140 392
 32.160 368
 32.180 357
 32.200 380
 32.220 384
 32.240 412
 32.260 453
 32.280 349
 32.300 349
 32.320 306
 32.340 306
 32.360 313
 32.380 262
 32.400 299
 32.420 292
 32.440 309
 32.460 324
 32.480 338
 32.500 408
 32.520 357
 32.540 428
 32.560 475
 32.580 542
 32.600 590
 32.620 605
 32.640 739
 32.660 734
 32.680 640
 32.700 538
 32.720 556
 32.740 519
 32.760 457
 32.780 353
 32.800 316
 32.820 338
 32.840 361
 32.860 364
 32.880 400
 32.900 349
 32.920 364
 32.940 380
 32.960 400
 32.980 408
 33.000 392
 33.020 376
 33.040 384
 33.060 342
 33.080 331
 33.100 345
 33.120 292
 33.140 282
 33.160 278
 33.180 331
 33.200 342
 33.220 353
 33.240 497
 33.260 660
 33.280 630
 33.300 712
 33.320 605
 33.340 605
 33.360 650
 33.380 605
 33.400 650
 33.420 533
 33.440 538
 33.460 556
 33.480 519
 33.500 529
 33.520 420
 33.540 475
 33.560 396
 33.580 441
 33.600 400
 33.620 441
 33.640 372
 33.660 364
 33.680 327
 33.700 324
 33.720 302
 33.740 285
 33.760 299
 33.780 338
 33.800 436
 33.820 718
 33.840 1089
 33.860 1169
 33.880 1128
 33.900 1036
 33.920 992
 33.940 817
 33.960 729
 33.980 571
 34.000 404
 34.020 302
 34.040 278
 34.060 246
 34.080 240
 34.100 237
 34.120 216
 34.140 210
 34.160 196
 34.180 187
 34.200 225
 34.220 225
 34.240 222
 34.260 240
 34.280 207
 34.300 246
 34.320 222
 34.340 231
 34.360 237
 34.380 246
 34.400 278
 34.420 252
 34.440 285
 34.460 302
 34.480 338
 34.500 361
 34.520 331
 34.540 320
 34.560 327
 34.580 331
 34.600 361
 34.620 400
 34.640 380
 34.660 428
 34.680 441
 34.700 412
 34.720 436
 34.740 462
 34.760 420
 34.780 412
 34.800 428
 34.820 412
 34.840 388
 34.860 380
 34.880 368
 34.900 368
 34.920 345
 34.940 327
 34.960 302
 34.980 289
 35.000 256
 35.020 262
 35.040 275
 35.060 285
 35.080 252
 35.100 282
 35.120 364
 35.140 392
 35.160 353
 35.180 432
 35.200 392
 35.220 392
 35.240 441
 35.260 400
 35.280 428
 35.300 392
 35.320 445
 35.340 416
 35.360 453
 35.380 416
 35.400 428
 35.420 457
 35.440 408
 35.460 404
 35.480 396
 35.500 424
 35.520 506
 35.540 475
 35.560 542
 35.580 576
 35.600 571
 35.620 772
 35.640 1303
 35.660 2162
 35.680 2959
 35.700 3433
 35.720 3624
 35.740 3492
 35.760 3169
 35.780 2550
 35.800 2275
 35.820 2016
 35.840 1672
 35.860 1197
 35.880 806
 35.900 610
 35.920 479
 35.940 470
 35.960 475
 35.980 449
 36.000 412
 36.020 445
 36.040 457
 36.060 457
 36.080 506
 36.100 510
 36.120 552
 36.140 702
 36.160 852
 36.180 806
 36.200 864
 36.220 750
 36.240 723
 36.260 645
 36.280 561
 36.300 510
 36.320 441
 36.340 424
 36.360 441
 36.380 441
 36.400 441
 36.420 416
 36.440 420
 36.460 441
 36.480 566
 36.500 479
 36.520 432
 36.540 428
 36.560 372
 36.580 412
 36.600 428
 36.620 449
 36.640 538
 36.660 542
 36.680 552
 36.700 506
 36.720 515
 36.740 605
 36.760 625
 36.780 625
 36.800 665
 36.820 681
 36.840 691
 36.860 681
 36.880 681
 36.900 585
 36.920 561
 36.940 519
 36.960 479
 36.980 457
 37.000 436
 37.020 416
 37.040 384
 37.060 368
 37.080 376
 37.100 306
 37.120 368
 37.140 364
 37.160 384
 37.180 436
 37.200 428
 37.220 479
 37.240 542
 37.260 538
 37.280 547
 37.300 580
 37.320 510
 37.340 576
 37.360 519
 37.380 466
 37.400 462
 37.420 345
 37.440 342
 37.460 316
 37.480 289
 37.500 292
 37.520 268
 37.540 268
 37.560 268
 37.580 262
 37.600 268
 37.620 228
 37.640 234
 37.660 268
 37.680 259
 37.700 272
 37.720 313
 37.740 331
 37.760 334
 37.780 384
 37.800 361
 37.820 353
 37.840 424
 37.860 400
 37.880 396
 37.900 388
 37.920 376
 37.940 420
 37.960 470
 37.980 501
 38.000 529
 38.020 600
 38.040 571
 38.060 625
 38.080 615
 38.100 691
 38.120 750
 38.140 800
 38.160 888
 38.180 1004
 38.200 1332
 38.220 1849
 38.240 2440
 38.260 2294
 38.280 2070
 38.300 1730
 38.320 1584
 38.340 1648
 38.360 1459
 38.380 1317
 38.400 1049
 38.420 852
 38.440 800
 38.460 712
 38.480 650
 38.500 702
 38.520 615
 38.540 542
 38.560 510
 38.580 484
 38.600 392
 38.620 428
 38.640 432
 38.660 497
 38.680 542
 38.700 640
 38.720 585
 38.740 524
 38.760 538
 38.780 585
 38.800 590
 38.820 625
 38.840 571
 38.860 542
 38.880 590
 38.900 676
 38.920 756
 38.940 841
 38.960 930
 38.980 1056
 39.000 1135
 39.020 1218
 39.040 1218
 39.060 1156
 39.080 998
 39.100 918
 39.120 789
 39.140 660
 39.160 655
 39.180 533
 39.200 449
 39.220 412
 39.240 392
 39.260 424
 39.280 441
 39.300 396
 39.320 376
 39.340 349
 39.360 392
 39.380 372
 39.400 408
 39.420 384
 39.440 376
 39.460 364
 39.480 349
 39.500 364
 39.520 420
 39.540 432
 39.560 449
 39.580 510
 39.600 566
 39.620 625
 39.640 761
 39.660 800
 39.680 846
 39.700 829
 39.720 1024
 39.740 1260
 39.760 1576
 39.780 2061
 39.800 2052
 39.820 1797
 39.840 1576
 39.860 1406
 39.880 1361
 39.900 1369
 39.920 1346
 39.940 1239
 39.960 1056
 39.980 998
 40.000 930
 40.020 912
 40.040 800
 40.060 756
 40.080 739
 40.100 745
 40.120 702
 40.140 696
 40.160 645
 40.180 595
 40.200 615
 40.220 640
 40.240 712
 40.260 696
 40.280 645
 40.300 745
 40.320 948
 40.340 1095
 40.360 1135
 40.380 1108
 40.400 912
 40.420 882
 40.440 812
 40.460 823
 40.480 745
 40.500 635
 40.520 571
 40.540 457
 40.560 416
 40.580 388
 40.600 338
 40.620 320
 40.640 316
 40.660 299
 40.680 285
 40.700 320
 40.720 268
 40.740 295
 40.760 265
 40.780 289
 40.800 272
 40.820 278
 40.840 259
 40.860 275
 40.880 278
 40.900 302
 40.920 306
 40.940 289
 40.960 275
 40.980 342
 41.000 353
 41.020 364
 41.040 368
 41.060 372
 41.080 396
 41.100 372
 41.120 396
 41.140 364
 41.160 368
 41.180 380
 41.200 441
 41.220 396
 41.240 408
 41.260 408
 41.280 400
 41.300 345
 41.320 345
 41.340 376
 41.360 372
 41.380 384
 41.400 396
 41.420 392
 41.440 436
 41.460 420
 41.480 392
 41.500 400
 41.520 376
 41.540 449
 41.560 501
 41.580 585
 41.600 1024
 41.620 1017
 41.640 524
 41.660 388
 41.680 400
 41.700 519
 41.720 640
 41.740 396
 41.760 278
 41.780 237
 41.800 231
 41.820 240
 41.840 234
 41.860 207
 41.880 246
 41.900 219
 41.920 213
 41.940 246
 41.960 219
 41.980 184
 42.000 249
 42.020 219
 42.040 210
 42.060 259
 42.080 228
 42.100 216
 42.120 240
 42.140 219
 42.160 231
 42.180 219
 42.200 262
 42.220 237
 42.240 268
 42.260 268
 42.280 252
 42.300 252
 42.320 252
 42.340 231
 42.360 256
 42.380 275
 42.400 240
 42.420 259
 42.440 262
 42.460 262
 42.480 262
 42.500 265
 42.520 237
 42.540 231
 42.560 222
 42.580 240
 42.600 240
 42.620 246
 42.640 265
 42.660 225
 42.680 249
 42.700 243
 42.720 240
 42.740 246
 42.760 237
 42.780 246
 42.800 237
 42.820 265
 42.840 272
 42.860 278
 42.880 256
 42.900 282
 42.920 285
 42.940 289
 42.960 282
 42.980 282
 43.000 338
 43.020 320
 43.040 313
 43.060 295
 43.080 295
 43.100 313
 43.120 309
 43.140 313
 43.160 302
 43.180 331
 43.200 338
 43.220 361
 43.240 412
 43.260 412
 43.280 408
 43.300 492
 43.320 524
 43.340 660
 43.360 992
 43.380 2007
 43.400 3806
 43.420 5241
 43.440 5836
 43.460 5126
 43.480 4070
 43.500 3445
 43.520 3540
 43.540 3672
 43.560 3214
 43.580 2601
 43.600 1772
 43.620 1122
 43.640 778
 43.660 630
 43.680 561
 43.700 605
 43.720 590
 43.740 556
 43.760 605
 43.780 660
 43.800 686
 43.820 576
 43.840 571
 43.860 645
 43.880 712
 43.900 998
 43.920 1466
 43.940 1747
 43.960 1332
 43.980 778
 44.000 590
 44.020 635
 44.040 876
 44.060 918
 44.080 712
 44.100 392
 44.120 331
 44.140 306
 44.160 292
 44.180 278
 44.200 285
 44.220 299
 44.240 285
 44.260 292
 44.280 306
 44.300 259
 44.320 272
 44.340 275
 44.360 285
 44.380 313
 44.400 265
 44.420 259
 44.440 262
 44.460 289
 44.480 282
 44.500 309
 44.520 302
 44.540 262
 44.560 292
 44.580 316
 44.600 306
 44.620 338
 44.640 316
 44.660 278
 44.680 278
 44.700 299
 44.720 295
 44.740 243
 44.760 231
 44.780 246
 44.800 256
 44.820 252
 44.840 265
 44.860 265
 44.880 278
 44.900 252
 44.920 278
 44.940 278
 44.960 285
 44.980 268
 45.000 231
 45.020 246
 45.040 256
 45.060 237
 45.080 262
 45.100 252
 45.120 246
 45.140 228
 45.160 259
 45.180 282
 45.200 252
 45.220 252
 45.240 282
 45.260 289
 45.280 278
 45.300 289
 45.320 331
 45.340 342
 45.360 324
 45.380 285
 45.400 268
 45.420 256
 45.440 278
 45.460 262
 45.480 292
 45.500 272
 45.520 282
 45.540 320
 45.560 295
 45.580 372
 45.600 376
 45.620 380
 45.640 331
 45.660 380
 45.680 349
 45.700 309
 45.720 331
 45.740 368
 45.760 376
 45.780 342
 45.800 349
 45.820 412
 45.840 424
 45.860 524
 45.880 600
 45.900 605
 45.920 542
 45.940 506
 45.960 488
 45.980 497
 46.000 533
 46.020 484
 46.040 436
 46.060 445
 46.080 388
 46.100 334
 46.120 334
 46.140 364
 46.160 324
 46.180 309
 46.200 302
 46.220 302
 46.240 285
 46.260 320
 46.280 292
 46.300 349
 46.320 404
 46.340 488
 46.360 665
 46.380 756
 46.400 670
 46.420 590
 46.440 449
 46.460 462
 46.480 475
 46.500 566
 46.520 457
 46.540 388
 46.560 357
 46.580 345
 46.600 342
 46.620 331
 46.640 342
 46.660 376
 46.680 400
 46.700 380
 46.720 364
 46.740 342
 46.760 368
 46.780 353
 46.800 412
 46.820 364
 46.840 376
 46.860 357
 46.880 408
 46.900 428
 46.920 428
 46.940 445
 46.960 475
 46.980 492
 47.000 510
 47.020 462
 47.040 462
 47.060 488
 47.080 462
 47.100 475
 47.120 420
 47.140 400
 47.160 380
 47.180 428
 47.200 416
 47.220 479
 47.240 524
 47.260 571
 47.280 610
 47.300 484
 47.320 408
 47.340 384
 47.360 436
 47.380 488
 47.400 484
 47.420 457
 47.440 380
 47.460 372
 47.480 338
 47.500 364
 47.520 400
 47.540 420
 47.560 396
 47.580 506
 47.600 580
 47.620 772
 47.640 1011
 47.660 1451
 47.680 1608
 47.700 1592
 47.720 1451
 47.740 1369
 47.760 1288
 47.780 1317
 47.800 1204
 47.820 1122
 47.840 1036
 47.860 835
 47.880 718
 47.900 590
 47.920 529
 47.940 484
 47.960 424
 47.980 306
 48.000 357
 48.020 384
 48.040 412
 48.060 428
 48.080 428
 48.100 372
 48.120 376
 48.140 353
 48.160 368
 48.180 404
 48.200 445
 48.220 416
 48.240 416
 48.260 376
 48.280 309
 48.300 353
 48.320 306
 48.340 353
 48.360 309
 48.380 309
 48.400 357
 48.420 396
 48.440 475
 48.460 571
 48.480 529
 48.500 529
 48.520 441
 48.540 449
 48.560 453
 48.580 475
 48.600 501
 48.620 453
 48.640 368
 48.660 376
 48.680 345
 48.700 299
 48.720 309
 48.740 342
 48.760 295
 48.780 299
 48.800 313
 48.820 364
 48.840 353
 48.860 392
 48.880 484
 48.900 686
 48.920 1030
 48.940 1281
 48.960 1089
 48.980 585
 49.000 470
 49.020 506
 49.040 630
 49.060 745
 49.080 829
 49.100 650
 49.120 400
 49.140 353
 49.160 327
 49.180 320
 49.200 327
 49.220 334
 49.240 316
 49.260 338
 49.280 331
 49.300 331
 49.320 324
 49.340 272
 49.360 246
 49.380 265
 49.400 268
 49.420 268
 49.440 292
 49.460 246
 49.480 252
 49.500 216
 49.520 213
 49.540 231
 49.560 243
 49.580 231
 49.600 243
 49.620 237
 49.640 219
 49.660 231
 49.680 259
 49.700 268
 49.720 265
 49.740 302
 49.760 292
 49.780 313
 49.800 327
 49.820 316
 49.840 306
 49.860 327
 49.880 306
 49.900 302
 49.920 309
 49.940 282
 49.960 327
 49.980 331
 50.000 306
 50.020 313
 50.040 285
 50.060 292
 50.080 299
 50.100 320
 50.120 338
 50.140 331
 50.160 292
 50.180 289
 50.200 309
 50.220 316
 50.240 361
 50.260 384
 50.280 388
 50.300 484
 50.320 576
 50.340 723
 50.360 718
 50.380 538
 50.400 436
 50.420 470
 50.440 561
 50.460 610
 50.480 625
 50.500 645
 50.520 506
 50.540 479
 50.560 497
 50.580 585
 50.600 795
 50.620 1436
 50.640 3091
 50.660 5372
 50.680 6625
 50.700 6368
 50.720 5550
 50.740 4382
 50.760 3422
 50.780 3014
 50.800 3352
 50.820 3540
 50.840 3003
 50.860 2500
 50.880 1953
 50.900 1332
 50.920 767
 50.940 488
 50.960 364
 50.980 334
 51.000 299
 51.020 285
 51.040 289
 51.060 292
 51.080 252
 51.100 210
 51.120 240
 51.140 249
 51.160 237
 51.180 231
 51.200 259
 51.220 222
 51.240 225
 51.260 210
 51.280 219
 51.300 225
 51.320 231
 51.340 240
 51.360 234
 51.380 234
 51.400 219
 51.420 207
 51.440 225
 51.460 207
 51.480 231
 51.500 256
 51.520 213
 51.540 225
 51.560 213
 51.580 243
 51.600 256
 51.620 228
 51.640 268
 51.660 237
 51.680 249
 51.700 234
 51.720 240
 51.740 275
 51.760 289
 51.780 268
 51.800 265
 51.820 275
 51.840 282
 51.860 289
 51.880 295
 51.900 313
 51.920 302
 51.940 268
 51.960 278
 51.980 292
 52.000 256
 52.020 292
 52.040 313
 52.060 306
 52.080 364
 52.100 376
 52.120 313
 52.140 272
 52.160 246
 52.180 256
 52.200 289
 52.220 268
 52.240 289
 52.260 256
 52.280 216
 52.300 246
 52.320 246
 52.340 240
 52.360 231
 52.380 216
 52.400 207
 52.420 196
 52.440 225
 52.460 231
 52.480 213
 52.500 252
 52.520 213
 52.540 252
 52.560 252
 52.580 249
 52.600 240
 52.620 237
 52.640 252
 52.660 259
 52.680 275
 52.700 262
 52.720 246
 52.740 278
 52.760 265
 52.780 234
 52.800 246
 52.820 272
 52.840 240
 52.860 252
 52.880 222
 52.900 213
 52.920 265
 52.940 256
 52.960 268
 52.980 262
 53.000 210
 53.020 216
 53.040 252
 53.060 213
 53.080 231
 53.100 243
 53.120 246
 53.140 243
 53.160 216
 53.180 228
 53.200 246
 53.220 225
 53.240 278
 53.260 289
 53.280 282
 53.300 299
 53.320 262
 53.340 243
 53.360 249
 53.380 256
 53.400 275
 53.420 259
 53.440 338
 53.460 309
 53.480 316
 53.500 316
 53.520 259
 53.540 275
 53.560 249
 53.580 249
 53.600 299
 53.620 289
 53.640 275
 53.660 313
 53.680 338
 53.700 289
 53.720 320
 53.740 376
 53.760 396
 53.780 408
 53.800 462
 53.820 445
 53.840 388
 53.860 353
 53.880 404
 53.900 424
 53.920 497
 53.940 506
 53.960 457
 53.980 488
 54.000 392
 54.020 420
 54.040 432
 54.060 420
 54.080 416
 54.100 416
 54.120 408
 54.140 396
 54.160 361
 54.180 372
 54.200 289
 54.220 282
 54.240 262
 54.260 252
 54.280 265
 54.300 262
 54.320 282
 54.340 243
 54.360 246
 54.380 237
 54.400 231
 54.420 256
 54.440 228
 54.460 243
 54.480 225
 54.500 234
 54.520 240
 54.540 219
 54.560 225
 54.580 249
 54.600 256
 54.620 262
 54.640 285
 54.660 268
 54.680 278
 54.700 292
 54.720 295
 54.740 334
 54.760 327
 54.780 309
 54.800 278
 54.820 265
 54.840 272
 54.860 299
 54.880 272
 54.900 275
 54.920 278
 54.940 289
 54.960 259
 54.980 252
 55.000 259
 55.020 252
 55.040 282
 55.060 299
 55.080 432
 55.100 479
 55.120 529
 55.140 542
 55.160 457
 55.180 392
 55.200 380
 55.220 408
 55.240 416
 55.260 497
 55.280 445
 55.300 445
 55.320 342
 55.340 275
 55.360 327
 55.380 285
 55.400 295
 55.420 292
 55.440 292
 55.460 278
 55.480 262
 55.500 228
 55.520 234
 55.540 246
 55.560 234
 55.580 228
 55.600 246
 55.620 228
 55.640 222
 55.660 243
 55.680 231
 55.700 249
 55.720 249
 55.740 256
 55.760 275
 55.780 252
 55.800 275
 55.820 285
 55.840 289
 55.860 306
 55.880 349
 55.900 320
 55.920 327
 55.940 324
 55.960 320
 55.980 302
 56.000 320
 56.020 345
 56.040 361
 56.060 372
 56.080 380
 56.100 320
 56.120 353
 56.140 285
 56.160 342
 56.180 372
 56.200 357
 56.220 302
 56.240 331
 56.260 306
 56.280 289
 56.300 272
 56.320 268
 56.340 302
 56.360 302
 56.380 249
 56.400 249
 56.420 225
 56.440 225
 56.460 249
 56.480 268
 56.500 302
 56.520 349
 56.540 475
 56.560 571
 56.580 566
 56.600 453
 56.620 334
 56.640 292
 56.660 292
 56.680 320
 56.700 380
 56.720 408
 56.740 357
 56.760 309
 56.780 262
 56.800 228
 56.820 243
 56.840 174
 56.860 184
 56.880 201
 56.900 207
 56.920 176
 56.940 196
 56.960 201
 56.980 219
 57.000 193
 57.020 207
 57.040 222
 57.060 198
 57.080 184
 57.100 207
 57.120 207
 57.140 216
 57.160 228
 57.180 240
 57.200 275
 57.220 299
 57.240 268
 57.260 249
 57.280 246
 57.300 234
 57.320 237
 57.340 265
 57.360 268
 57.380 249
 57.400 265
 57.420 262
 57.440 252
 57.460 252
 57.480 259
 57.500 309
 57.520 306
 57.540 331
 57.560 353
 57.580 299
 57.600 334
 57.620 278
 57.640 285
 57.660 302
 57.680 316
 57.700 361
 57.720 364
 57.740 345
 57.760 295
 57.780 282
 57.800 272
 57.820 240
 57.840 249
 57.860 265
 57.880 272
 57.900 265
 57.920 240
 57.940 187
 57.960 228
 57.980 216
 58.000 231
 58.020 225
 58.040 225
 58.060 216
 58.080 225
 58.100 213
 58.120 219
 58.140 196
 58.160 237
 58.180 210
 58.200 213
 58.220 213
 58.240 216
 58.260 193
 58.280 231
 58.300 252
 58.320 216
 58.340 216
 58.360 187
 58.380 222
 58.400 204
 58.420 196
 58.440 249
 58.460 240
 58.480 204
 58.500 210
 58.520 213
 58.540 196
 58.560 210
 58.580 231
 58.600 204
 58.620 222
 58.640 204
 58.660 234
 58.680 225
 58.700 207
 58.720 219
 58.740 190
 58.760 216
 58.780 231
 58.800 207
 58.820 204
 58.840 190
 58.860 210
 58.880 256
 58.900 282
 58.920 309
 58.940 320
 58.960 376
 58.980 396
 59.000 313
 59.020 282
 59.040 282
 59.060 249
 59.080 282
 59.100 306
 59.120 313
 59.140 292
 59.160 299
 59.180 240
 59.200 237
 59.220 231
 59.240 228
 59.260 187
 59.280 198
 59.300 198
 59.320 184
 59.340 210
 59.360 187
 59.380 190
 59.400 193
 59.420 201
 59.440 207
 59.460 210
 59.480 216
 59.500 210
 59.520 237
 59.540 198
 59.560 213
 59.580 187
 59.600 219
 59.620 193
 59.640 222
 59.660 198
 59.680 198
 59.700 184
 59.720 182
 59.740 198
 59.760 204
 59.780 179
 59.800 213
 59.820 219
 59.840 204
 59.860 198
 59.880 225
 59.900 190
 59.920 216
 59.940 213
 59.960 262
 59.980 302
 60.000 334
 60.020 501
 60.040 595
 60.060 789
 60.080 936
 60.100 1108
 60.120 1197
 60.140 1115
 60.160 1069
 60.180 823
 60.200 615
 60.220 561
 60.240 620
 60.260 660
 60.280 691
 60.300 670
 60.320 610
 60.340 449
 60.360 334
 60.380 237
 60.400 243
 60.420 234
 60.440 222
 60.460 237
 60.480 201
 60.500 213
 60.520 222
 60.540 198
 60.560 265
 60.580 243
 60.600 225
 60.620 184
 60.640 225
 60.660 225
 60.680 201
 60.700 184
 60.720 219
 60.740 262
 60.760 225
 60.780 196
 60.800 225
 60.820 176
 60.840 179
 60.860 193
 60.880 182
 60.900 201
 60.920 182
 60.940 187
 60.960 213
 60.980 210
 61.000 193
 61.020 216
 61.040 184
 61.060 176
 61.080 187
 61.100 210
 61.120 198
 61.140 198
 61.160 176
 61.180 213
 61.200 196
 61.220 169
 61.240 190
 61.260 198
 61.280 187
 61.300 198
 61.320 204
 61.340 219
 61.360 222
 61.380 222
 61.400 228
 61.420 228
 61.440 243
 61.460 246
 61.480 282
 61.500 416
 61.520 561
 61.540 566
 61.560 453
 61.580 306
 61.600 292
 61.620 262
 61.640 243
 61.660 292
 61.680 380
 61.700 400
 61.720 306
 61.740 249
 61.760 228
 61.780 222
 61.800 222
 61.820 222
 61.840 204
 61.860 207
 61.880 207
 61.900 201
 61.920 198
 61.940 187
 61.960 207
 61.980 234
 62.000 216
 62.020 225
 62.040 193
 62.060 198
 62.080 156
 62.100 148
 62.120 184
 62.140 158
 62.160 190
 62.180 190
 62.200 187
 62.220 184
 62.240 161
 62.260 182
 62.280 196
 62.300 184
 62.320 187
 62.340 225
 62.360 240
 62.380 246
 62.400 213
 62.420 222
 62.440 207
 62.460 182
 62.480 196
 62.500 222
 62.520 176
 62.540 207
 62.560 216
 62.580 190
 62.600 174
 62.620 198
 62.640 196
 62.660 169
 62.680 187
 62.700 193
 62.720 198
 62.740 190
 62.760 201
 62.780 193
 62.800 213
 62.820 187
 62.840 187
 62.860 216
 62.880 225
 62.900 225
 62.920 216
 62.940 204
 62.960 207
 62.980 201
 63.000 184
 63.020 187
 63.040 187
 63.060 219
 63.080 196
 63.100 193
 63.120 193
 63.140 204
 63.160 171
 63.180 201
 63.200 204
 63.220 219
 63.240 210
 63.260 184
 63.280 240
 63.300 210
 63.320 204
 63.340 201
 63.360 222
 63.380 256
 63.400 213
 63.420 201
 63.440 231
 63.460 249
 63.480 216
 63.500 256
 63.520 272
 63.540 285
 63.560 324
 63.580 334
 63.600 320
 63.620 380
 63.640 400
 63.660 376
 63.680 331
 63.700 338
 63.720 285
 63.740 278
 63.760 278
 63.780 275
 63.800 313
 63.820 327
 63.840 306
 63.860 316
 63.880 295
 63.900 282
 63.920 231
 63.940 243
 63.960 234
 63.980 216
 64.000 219
 64.020 249
 64.040 249
 64.060 240
 64.080 219
 64.100 225
 64.120 262
 64.140 225
 64.160 243
 64.180 246
 64.200 231
 64.220 228
 64.240 182
 64.260 222
 64.280 228
 64.300 240
 64.320 240
 64.340 262
 64.360 256
 64.380 268
 64.400 372
 64.420 428
 64.440 466
 64.460 501
 64.480 524
 64.500 466
 64.520 320
 64.540 309
 64.560 299
 64.580 272
 64.600 309
 64.620 338
 64.640 361
 64.660 349
 64.680 327
 64.700 265
 64.720 237
 64.740 237
 64.760 216
 64.780 259
 64.800 252
 64.820 295
 64.840 331
 64.860 408
 64.880 436
 64.900 436
 64.920 457
 64.940 396
 64.960 376
 64.980 334
 65.000 357
 65.020 327
 65.040 361
 65.060 357
 65.080 376
 65.100 353
 65.120 357
 65.140 372
 65.160 424
 65.180 492
 65.200 510
 65.220 492
 65.240 479
 65.260 424
 65.280 372
 65.300 320
 65.320 327
 65.340 338
 65.360 361
 65.380 327
 65.400 372
 65.420 306
 65.440 309
 65.460 285
 65.480 240
 65.500 252
 65.520 228
 65.540 216
 65.560 207
 65.580 198
 65.600 196
 65.620 207
 65.640 207
 65.660 198
 65.680 201
 65.700 201
 65.720 204
 65.740 240
 65.760 210
 65.780 234
 65.800 219
 65.820 249
 65.840 198
 65.860 249
 65.880 275
 65.900 342
 65.920 420
 65.940 453
 65.960 420
 65.980 334
 66.000 278
 66.020 289
 66.040 201
 66.060 219
 66.080 262
 66.100 275
 66.120 316
 66.140 309
 66.160 320
 66.180 278
 66.200 278
 66.220 262
 66.240 275
 66.260 246
 66.280 201
 66.300 204
 66.320 201
 66.340 231
 66.360 216
 66.380 240
 66.400 262
 66.420 282
 66.440 349
 66.460 396
 66.480 492
 66.500 524
 66.520 538
 66.540 510
 66.560 416
 66.580 361
 66.600 262
 66.620 313
 66.640 302
 66.660 342
 66.680 392
 66.700 388
 66.720 361
 66.740 345
 66.760 334
 66.780 313
 66.800 292
 66.820 262
 66.840 240
 66.860 201
 66.880 196
 66.900 198
 66.920 207
 66.940 210
 66.960 222
 66.980 240
 67.000 204
 67.020 193
 67.040 190
 67.060 201
 67.080 201
 67.100 207
 67.120 187
 67.140 179
 67.160 193
 67.180 174
 67.200 163
 67.220 176
 67.240 193
 67.260 210
 67.280 207
 67.300 187
 67.320 198
 67.340 198
 67.360 207
 67.380 148
 67.400 179
 67.420 179
 67.440 166
 67.460 196
 67.480 196
 67.500 204
 67.520 207
 67.540 207
 67.560 161
 67.580 196
 67.600 204
 67.620 182
 67.640 179
 67.660 176
 67.680 184
 67.700 187
 67.720 179
 67.740 204
 67.760 190
 67.780 198
 67.800 190
 67.820 210
 67.840 182
 67.860 184
 67.880 163
 67.900 187
 67.920 174
 67.940 182
 67.960 198
 67.980 190
 68.000 163
 68.020 166
 68.040 166
 68.060 201
 68.080 163
 68.100 182
 68.120 190
 68.140 182
 68.160 207
 68.180 158
 68.200 166
 68.220 176
 68.240 156
 68.260 148
 68.280 184
 68.300 176
 68.320 187
 68.340 161
 68.360 171
 68.380 161
 68.400 161
 68.420 184
 68.440 163
 68.460 204
 68.480 207
 68.500 213
 68.520 176
 68.540 184
 68.560 182
 68.580 193
 68.600 174
 68.620 193
 68.640 187
 68.660 204
 68.680 196
 68.700 166
 68.720 190
 68.740 176
 68.760 187
 68.780 193
 68.800 204
 68.820 210
 68.840 228
 68.860 234
 68.880 361
 68.900 441
 68.920 510
 68.940 497
 68.960 400
 68.980 324
 69.000 246
 69.020 259
 69.040 259
 69.060 259
 69.080 349
 69.100 462
 69.120 660
 69.140 841
 69.160 1004
 69.180 1176
 69.200 1197
 69.220 1075
 69.240 1049
 69.260 829
 69.280 660
 69.300 595
 69.320 538
 69.340 615
 69.360 676
 69.380 767
 69.400 750
 69.420 681
 69.440 625
 69.460 501
 69.480 420
 69.500 302
 69.520 306
 69.540 265
 69.560 222
 69.580 207
 69.600 193
 69.620 237
 69.640 207
 69.660 237
 69.680 222
 69.700 176
 69.720 219
 69.740 176
 69.760 174
 69.780 182
 69.800 190
 69.820 176
 69.840 182
 69.860 193
 69.880 225
 69.900 231
 69.920 240
 69.940 240
 69.960 240
 69.980 299
 70.000 320
 70.020 384
 70.040 396
 70.060 380
 70.080 361
 70.100 353
 70.120 306
 70.140 252
 70.160 246
 70.180 268
 70.200 309
 70.220 265
 70.240 313
 70.260 278
 70.280 275
 70.300 265
 70.320 278
 70.340 256
 70.360 184
 70.380 190
 70.400 196
 70.420 198
 70.440 184
 70.460 246
 70.480 201
 70.500 222
 70.520 219
 70.540 234
 70.560 193
 70.580 196
 70.600 204
 70.620 237
 70.640 196
 70.660 201
 70.680 204
 70.700 204
 70.720 190
 70.740 219
 70.760 193
 70.780 213
 70.800 198
 70.820 213
 70.840 176
 70.860 198
 70.880 190
 70.900 196
 70.920 169
 70.940 190
 70.960 190
 70.980 216
 71.000 193
 71.020 201
 71.040 207
 71.060 272
 71.080 342
 71.100 368
 71.120 380
 71.140 384
 71.160 324
 71.180 285
 71.200 292
 71.220 299
 71.240 302
 71.260 313
 71.280 342
 71.300 353
 71.320 320
 71.340 252
 71.360 262
 71.380 237
 71.400 184
 71.420 246
 71.440 262
 71.460 246
 71.480 268
 71.500 225
 71.520 240
 71.540 228
 71.560 196
 71.580 184
 71.600 193
 71.620 210
 71.640 184
 71.660 207
 71.680 231
 71.700 204
 71.720 204
 71.740 171
 71.760 196
 71.780 182
 71.800 174
 71.820 184
 71.840 184
 71.860 174
 71.880 176
 71.900 190
 71.920 187
 71.940 210
 71.960 174
 71.980 187
 72.000 219
 72.020 216
 72.040 216
 72.060 231
 72.080 265
 72.100 320
 72.120 246
 72.140 234
 72.160 213
 72.180 196
 72.200 190
 72.220 198
 72.240 204
 72.260 193
 72.280 222
 72.300 234
 72.320 231
 72.340 231
 72.360 198
 72.380 198
 72.400 176
 72.420 196
 72.440 176
 72.460 182
 72.480 187
 72.500 146
 72.520 201
 72.540 190
 72.560 213
 72.580 222
 72.600 204
 72.620 237
 72.640 201
 72.660 201
 72.680 182
 72.700 265
 72.720 259
 72.740 275
 72.760 327
 72.780 272
 72.800 265
 72.820 249
 72.840 246
 72.860 231
 72.880 216
 72.900 231
 72.920 237
 72.940 225
 72.960 240
 72.980 228
 73.000 231
 73.020 207
 73.040 196
 73.060 222
 73.080 201
 73.100 216
 73.120 225
 73.140 207
 73.160 228
 73.180 207
 73.200 190
 73.220 210
 73.240 196
 73.260 210
 73.280 228
 73.300 201
 73.320 234
 73.340 187
 73.360 201
 73.380 179
 73.400 196
 73.420 228
 73.440 222
 73.460 166
 73.480 196
 73.500 190
 73.520 219
 73.540 184
 73.560 179
 73.580 190
 73.600 210
 73.620 153
 73.640 163
 73.660 153
 73.680 174
 73.700 184
 73.720 193
 73.740 193
 73.760 184
 73.780 196
 73.800 179
 73.820 198
 73.840 187
 73.860 187
 73.880 169
 73.900 163
 73.920 169
 73.940 216
 73.960 216
 73.980 243
 74.000 204
 74.020 222
 74.040 222
 74.060 234
 74.080 256
 74.100 272
 74.120 342
 74.140 453
 74.160 466
 74.180 416
 74.200 416
 74.220 316
 74.240 299
 74.260 268
 74.280 259
 74.300 320
 74.320 299
 74.340 364
 74.360 353
 74.380 349
 74.400 295
 74.420 282
 74.440 246
 74.460 222
 74.480 225
 74.500 222
 74.520 228
 74.540 198
 74.560 193
 74.580 193
 74.600 207
 74.620 182
 74.640 176
 74.660 219
 74.680 171
 74.700 190
 74.720 213
 74.740 201
 74.760 198
 74.780 196
 74.800 198
 74.820 174
 74.840 187
 74.860 193
 74.880 207
 74.900 225
 74.920 219
 74.940 190
 74.960 198
 74.980 222
 75.000 193
 75.020 216
 75.040 213
 75.060 201
 75.080 204
 75.100 193
 75.120 234
 75.140 234
 75.160 225
 75.180 240
 75.200 207
 75.220 231
 75.240 222
 75.260 207
 75.280 190
 75.300 210
 75.320 207
 75.340 201
 75.360 216
 75.380 204
 75.400 240
 75.420 231
 75.440 216
 75.460 201
 75.480 193
 75.500 210
 75.520 176
 75.540 196
 75.560 187
 75.580 228
 75.600 193
 75.620 190
 75.640 190
 75.660 210
 75.680 187
 75.700 190
 75.720 187
 75.740 193
 75.760 196
 75.780 210
 75.800 243
 75.820 231
 75.840 237
 75.860 213
 75.880 228
 75.900 179
 75.920 193
 75.940 184
 75.960 179
 75.980 198
 76.000 187
 76.020 204
 76.040 225
 76.060 225
 76.080 225
 76.100 225
 76.120 201
 76.140 187
 76.160 193
 76.180 210
 76.200 210
 76.220 187
 76.240 182
 76.260 193
 76.280 198
 76.300 198
 76.320 216
 76.340 222
 76.360 213
 76.380 222
 76.400 265
 76.420 306
 76.440 412
 76.460 453
 76.480 441
 76.500 470
 76.520 436
 76.540 327
 76.560 275
 76.580 243
 76.600 237
 76.620 243
 76.640 243
 76.660 295
 76.680 331
 76.700 338
 76.720 299
 76.740 292
 76.760 272
 76.780 285
 76.800 210
 76.820 187
 76.840 201
 76.860 201
 76.880 153
 76.900 196
 76.920 187
 76.940 210
 76.960 204
 76.980 207
 77.000 190
 77.020 193
 77.040 213
 77.060 216
 77.080 256
 77.100 213
 77.120 213
 77.140 182
 77.160 174
 77.180 179
 77.200 169
 77.220 166
 77.240 196
 77.260 193
 77.280 184
 77.300 207
 77.320 216
 77.340 190
 77.360 201
 77.380 231
 77.400 228
 77.420 234
 77.440 243
 77.460 213
 77.480 210
 77.500 190
 77.520 179
 77.540 196
 77.560 213
 77.580 201
 77.600 240
 77.620 249
 77.640 207
 77.660 243
 77.680 252
 77.700 219
 77.720 201
 77.740 187
 77.760 182
 77.780 196
 77.800 187
 77.820 216
 77.840 184
 77.860 228
 77.880 187
 77.900 225
 77.920 222
 77.940 190
 77.960 219
 77.980 196
 78.000 187
 78.020 210
 78.040 228
 78.060 216
 78.080 219
 78.100 207
 78.120 210
 78.140 196
 78.160 187
 78.180 207
 78.200 187
 78.220 187
 78.240 193
 78.260 179
 78.280 174
 78.300 196
 78.320 237
 78.340 190
 78.360 210
 78.380 187
 78.400 204
 78.420 176
 78.440 201
 78.460 196
 78.480 252
 78.500 231
 78.520 222
 78.540 256
 78.560 285
 78.580 302
 78.600 316
 78.620 282
 78.640 262
 78.660 249
 78.680 256
 78.700 292
 78.720 408
 78.740 571
 78.760 676
 78.780 812
 78.800 846
 78.820 681
 78.840 475
 78.860 338
 78.880 265
 78.900 237
 78.920 234
 78.940 252
 78.960 309
 78.980 400
 79.000 400
 79.020 475
 79.040 466
 79.060 380
 79.080 331
 79.100 306
 79.120 357
 79.140 416
 79.160 445
 79.180 372
 79.200 331
 79.220 282
 79.240 196
 79.260 198
 79.280 198
 79.300 219
 79.320 246
 79.340 278
 79.360 292
 79.380 349
 79.400 309
 79.420 282
 79.440 256
 79.460 243
 79.480 262
 79.500 234
 79.520 213
 79.540 228
 79.560 228
 79.580 234
 79.600 207
 79.620 216
 79.640 184
 79.660 190
 79.680 190
 79.700 222
 79.720 196
 79.740 182
 79.760 174
 79.780 179
 79.800 163
 79.820 187
 79.840 171
 79.860 184
 79.880 176
 79.900 190
 79.920 169
 79.940 193
 79.960 225
 79.980 210
 80.000 176
 80.020 204
 80.040 196
 80.060 204
 80.080 176
 80.100 201
 80.120 213
 80.140 198
 80.160 182
 80.180 196
 80.200 166
 80.220 216
 80.240 201
 80.260 219
 80.280 210
 80.300 216
 80.320 240
 80.340 228
 80.360 207
 80.380 210
 80.400 204
 80.420 204
 80.440 216
 80.460 166
 80.480 182
 80.500 190
 80.520 196
 80.540 216
 80.560 225
 80.580 222
 80.600 309
 80.620 282
 80.640 252
 80.660 201
 80.680 207
 80.700 207
 80.720 201
 80.740 174
 80.760 219
 80.780 198
 80.800 196
 80.820 237
 80.840 228
 80.860 204
 80.880 246
 80.900 207
 80.920 174
 80.940 184
 80.960 193
 80.980 153
 81.000 201
 81.020 187
 81.040 182
 81.060 179
 81.080 169
 81.100 169
 81.120 198
 81.140 166
 81.160 193
 81.180 169
 81.200 201
 81.220 196
 81.240 198
 81.260 210
 81.280 201
 81.300 176
 81.320 161
 81.340 176
 81.360 210
 81.380 207
 81.400 190
 81.420 179
 81.440 176
 81.460 182
 81.480 204
 81.500 182
 81.520 179
 81.540 182
 81.560 184
 81.580 179
 81.600 182
 81.620 176
 81.640 174
 81.660 179
 81.680 169
 81.700 196
 81.720 190
 81.740 158
 81.760 174
 81.780 198
 81.800 196
 81.820 198
 81.840 161
 81.860 193
 81.880 179
 81.900 176
 81.920 179
 81.940 184
 81.960 176
 81.980 210
 82.000 166
 82.020 182
 82.040 174
 82.060 196
 82.080 174
 82.100 234
 82.120 169
 82.140 190
 82.160 225
 82.180 174
 82.200 179
 82.220 176
 82.240 176
 82.260 198
 82.280 198
 82.300 198
 82.320 225
 82.340 179
 82.360 187
 82.380 213
 82.400 190
 82.420 174
 82.440 184
 82.460 207
 82.480 190
 82.500 187
 82.520 169
 82.540 196
 82.560 204
 82.580 198
 82.600 190
 82.620 187
 82.640 198
 82.660 222
 82.680 196
 82.700 228
 82.720 231
 82.740 213
 82.760 219
 82.780 213
 82.800 216
 82.820 207
 82.840 187
 82.860 179
 82.880 196
 82.900 174
 82.920 174
 82.940 193
 82.960 182
 82.980 198
 83.000 174
 83.020 187
 83.040 196
 83.060 198
 83.080 193
 83.100 216
 83.120 210
 83.140 249
 83.160 265
 83.180 275
 83.200 246
 83.220 201
 83.240 207
 83.260 222
 83.280 187
 83.300 193
 83.320 204
 83.340 201
 83.360 243
 83.380 187
 83.400 216
 83.420 210
 83.440 234
 83.460 176
 83.480 171
 83.500 182
 83.520 148
 83.540 182
 83.560 204
 83.580 210
 83.600 198
 83.620 193
 83.640 201
 83.660 190
 83.680 153
 83.700 179
 83.720 161
 83.740 158
 83.760 144
 83.780 161
 83.800 148
 83.820 196
 83.840 176
 83.860 179
 83.880 166
 83.900 169
 83.920 174
 83.940 163
 83.960 139
 83.980 144
 84.000 151
 84.020 144
 84.040 136
 84.060 151
 84.080 166
 84.100 161
 84.120 153
 84.140 153
 84.160 156
 84.180 176
 84.200 141
 84.220 139
 84.240 158
 84.260 161
 84.280 163
 84.300 161
 84.320 174
 84.340 171
 84.360 158
 84.380 171
 84.400 163
 84.420 174
 84.440 148
 84.460 182
 84.480 184
 84.500 163
 84.520 161
 84.540 184
 84.560 193
 84.580 193
 84.600 166
 84.620 148
 84.640 184
 84.660 163
 84.680 158
 84.700 151
 84.720 171
 84.740 176
 84.760 179
 84.780 158
 84.800 163
 84.820 182
 84.840 171
 84.860 158
 84.880 158
 84.900 169
 84.920 182
 84.940 144
 84.960 163
 84.980 156
 85.000 144
 85.020 166
 85.040 129
 85.060 153
 85.080 153
 85.100 144
 85.120 146
 85.140 144
 85.160 169
 85.180 166
 85.200 139
 85.220 134
 85.240 146
 85.260 139
 85.280 125
 85.300 136
 85.320 116
 85.340 161
 85.360 163
 85.380 156
 85.400 161
 85.420 151
 85.440 144
 85.460 148
 85.480 153
 85.500 158
 85.520 129
 85.540 146
 85.560 151
 85.580 161
 85.600 158
 85.620 139
 85.640 182
 85.660 161
 85.680 141
 85.700 158
 85.720 166
 85.740 151
 85.760 146
 85.780 161
 85.800 148
 85.820 166
 85.840 151
 85.860 169
 85.880 176
 85.900 151
 85.920 169
 85.940 156
 85.960 171
 85.980 169
 86.000 171
 86.020 161
 86.040 190
 86.060 174
 86.080 184
 86.100 198
 86.120 176
 86.140 193
 86.160 231
 86.180 272
 86.200 368
 86.220 428
 86.240 372
 86.260 327
 86.280 275
 86.300 219
 86.320 210
 86.340 169
 86.360 198
 86.380 187
 86.400 156
 86.420 228
 86.440 237
 86.460 262
 86.480 268
 86.500 272
 86.520 262
 86.540 228
 86.560 182
 86.580 198
 86.600 174
 86.620 187
 86.640 213
 86.660 182
 86.680 196
 86.700 184
 86.720 193
 86.740 201
 86.760 204
 86.780 174
 86.800 225
 86.820 179
 86.840 207
 86.860 198
 86.880 240
 86.900 225
 86.920 207
 86.940 207
 86.960 198
 86.980 210
 87.000 198
 87.020 201
 87.040 196
 87.060 204
 87.080 193
 87.100 187
 87.120 213
 87.140 225
 87.160 237
 87.180 234
 87.200 372
 87.220 475
 87.240 615
 87.260 620
 87.280 515
 87.300 404
 87.320 320
 87.340 302
 87.360 231
 87.380 234
 87.400 228
 87.420 196
 87.440 240
 87.460 259
 87.480 338
 87.500 372
 87.520 457
 87.540 388
 87.560 342
 87.580 249
 87.600 246
 87.620 207
 87.640 193
 87.660 225
 87.680 219
 87.700 231
 87.720 210
 87.740 219
 87.760 207
 87.780 216
 87.800 222
 87.820 207
 87.840 190
 87.860 174
 87.880 163
 87.900 201
 87.920 174
 87.940 179
 87.960 198
 87.980 179
 88.000 187
 88.020 187
 88.040 201
 88.060 169
 88.080 207
 88.100 196
 88.120 158
 88.140 176
 88.160 146
 88.180 169
 88.200 141
 88.220 158
 88.240 166
 88.260 153
 88.280 174
 88.300 182
 88.320 163
 88.340 193
 88.360 196
 88.380 163
 88.400 169
 88.420 174
 88.440 153
 88.460 187
 88.480 134
 88.500 166
 88.520 163
 88.540 158
 88.560 153
 88.580 134
 88.600 171
 88.620 176
 88.640 153
 88.660 125
 88.680 171
 88.700 151
 88.720 182
 88.740 184
 88.760 190
 88.780 161
 88.800 193
 88.820 213
 88.840 207
 88.860 228
 88.880 198
 88.900 201
 88.920 148
 88.940 187
 88.960 196
 88.980 166
 89.000 190
 89.020 166
 89.040 153
 89.060 169
 89.080 169
 89.100 193
 89.120 184
 89.140 196
 89.160 174
 89.180 182
 89.200 144
 89.220 153
 89.240 166
 89.260 182
 89.280 144
 89.300 134
 89.320 184
 89.340 151
 89.360 146
 89.380 158
 89.400 171
 89.420 161
 89.440 144
 89.460 158
 89.480 158
 89.500 169
 89.520 153
 89.540 184
 89.560 161
 89.580 163
 89.600 146
 89.620 153
 89.640 169
 89.660 171
 89.680 161
 89.700 219
 89.720 201
 89.740 228
 89.760 246
 89.780 237
 89.800 243
 89.820 237
 89.840 207
 89.860 187
 89.880 171
 89.900 163
 89.920 182
 89.940 163
 89.960 163
 89.980 176
 90.000 213
 90.020 210
 90.040 259
 90.060 302
 90.080 282
 90.100 259
 90.120 234
 90.140 190
 90.160 187
 90.180 169
 90.200 198
 90.220 190
 90.240 193
 90.260 187
 90.280 198
 90.300 187
 90.320 234
 90.340 219
 90.360 182
 90.380 174
 90.400 169
 90.420 187
 90.440 166
 90.460 174
 90.480 176
 90.500 174
 90.520 193
 90.540 169
 90.560 176
 90.580 198
 90.600 249
 90.620 252
 90.640 228
 90.660 228
 90.680 243
 90.700 243
 90.720 243
 90.740 259
 90.760 222
 90.780 201
 90.800 179
 90.820 161
 90.840 190
 90.860 171
 90.880 207
 90.900 196
 90.920 216
 90.940 219
 90.960 190
 90.980 187
 91.000 204
 91.020 187
 91.040 196
 91.060 210
 91.080 156
 91.100 182
 91.120 169
 91.140 169
 91.160 161
 91.180 144
 91.200 161
 91.220 148
 91.240 153
 91.260 146
 91.280 158
 91.300 176
 91.320 198
 91.340 184
 91.360 193
 91.380 213
 91.400 187
 91.420 210
 91.440 240
 91.460 259
 91.480 240
 91.500 228
 91.520 207
 91.540 219
 91.560 246
 91.580 216
 91.600 246
 91.620 240
 91.640 222
 91.660 231
 91.680 190
 91.700 210
 91.720 198
 91.740 201
 91.760 207
 91.780 193
 91.800 193
 91.820 184
 91.840 158
 91.860 187
 91.880 187
 91.900 219
 91.920 182
 91.940 201
 91.960 190
 91.980 184
 92.000 166
 92.020 141
 92.040 153
 92.060 151
 92.080 187
 92.100 136
 92.120 174
 92.140 134
 92.160 148
 92.180 144
 92.200 139
 92.220 153
 92.240 136
 92.260 158
 92.280 166
 92.300 148
 92.320 163
 92.340 163
 92.360 169
 92.380 146
 92.400 134
 92.420 163
 92.440 153
 92.460 158
 92.480 153
 92.500 176
 92.520 144
 92.540 169
 92.560 153
 92.580 201
 92.600 182
 92.620 187
 92.640 163
 92.660 156
 92.680 158
 92.700 144
 92.720 176
 92.740 187
 92.760 174
 92.780 182
 92.800 210
 92.820 246
 92.840 207
 92.860 201
 92.880 187
 92.900 182
 92.920 187
 92.940 187
 92.960 158
 92.980 144
 93.000 174
 93.020 146
 93.040 174
 93.060 187
 93.080 207
 93.100 219
 93.120 216
 93.140 219
 93.160 246
 93.180 216
 93.200 275
 93.220 259
 93.240 302
 93.260 302
 93.280 259
 93.300 198
 93.320 187
 93.340 210
 93.360 187
 93.380 158
 93.400 184
 93.420 179
 93.440 190
 93.460 184
 93.480 184
 93.500 207
 93.520 204
 93.540 225
 93.560 193
 93.580 216
 93.600 182
 93.620 148
 93.640 146
 93.660 153
 93.680 144
 93.700 184
 93.720 163
 93.740 158
 93.760 176
 93.780 179
 93.800 182
 93.820 153
 93.840 153
 93.860 151
 93.880 153
 93.900 156
 93.920 169
 93.940 171
 93.960 201
 93.980 174
 94.000 174
 94.020 182
 94.040 166
 94.060 169
 94.080 187
 94.100 161
 94.120 179
 94.140 158
 94.160 153
 94.180 158
 94.200 156
 94.220 163
 94.240 163
 94.260 161
 94.280 176
 94.300 163
 94.320 171
 94.340 163
 94.360 184
 94.380 158
 94.400 174
 94.420 144
 94.440 171
 94.460 148
 94.480 163
 94.500 163
 94.520 166
 94.540 163
 94.560 174
 94.580 163
 94.600 139
 94.620 171
 94.640 148
 94.660 169
 94.680 125
 94.700 161
 94.720 161
 94.740 144
 94.760 134
 94.780 148
 94.800 146
 94.820 144
 94.840 156
 94.860 151
 94.880 134
 94.900 148
 94.920 148
 94.940 163
 94.960 156
 94.980 169
 95.000 132
 95.020 129
 95.040 153
 95.060 158
 95.080 166
 95.100 166
 95.120 169
 95.140 158
 95.160 163
 95.180 166
 95.200 169
 95.220 148
 95.240 171
 95.260 127
 95.280 166
 95.300 163
 95.320 163
 95.340 136
 95.360 148
 95.380 134
 95.400 163
 95.420 153
 95.440 174
 95.460 163
 95.480 153
 95.500 151
 95.520 153
 95.540 169
 95.560 156
 95.580 158
 95.600 166
 95.620 146
 95.640 136
 95.660 153
 95.680 153
 95.700 158
 95.720 163
 95.740 139
 95.760 156
 95.780 163
 95.800 158
 95.820 132
 95.840 158
 95.860 139
 95.880 148
 95.900 125
 95.920 169
 95.940 144
 95.960 158
 95.980 156
 96.000 151
 96.020 136
 96.040 158
 96.060 132
 96.080 187
 96.100 148
 96.120 129
 96.140 166
 96.160 201
 96.180 163
 96.200 201
 96.220 198
 96.240 163
 96.260 184
 96.280 153
 96.300 144
 96.320 153
 96.340 153
 96.360 148
 96.380 134
 96.400 146
 96.420 134
 96.440 153
 96.460 144
 96.480 174
 96.500 176
 96.520 169
 96.540 146
 96.560 169
 96.580 179
 96.600 144
 96.620 132
 96.640 151
 96.660 139
 96.680 156
 96.700 153
 96.720 144
 96.740 158
 96.760 166
 96.780 144
 96.800 139
 96.820 144
 96.840 153
 96.860 134
 96.880 132
 96.900 132
 96.920 153
 96.940 163
 96.960 148
 96.980 141
 97.000 169
 97.020 123
 97.040 139
 97.060 132
 97.080 141
 97.100 144
 97.120 139
 97.140 141
 97.160 134
 97.180 134
 97.200 151
 97.220 141
 97.240 146
 97.260 146
 97.280 148
 97.300 127
 97.320 146
 97.340 156
 97.360 151
 97.380 127
 97.400 134
 97.420 141
 97.440 148
 97.460 153
 97.480 174
 97.500 158
 97.520 163
 97.540 148
 97.560 148
 97.580 141
 97.600 163
 97.620 144
 97.640 129
 97.660 141
 97.680 158
 97.700 151
 97.720 148
 97.740 136
 97.760 153
 97.780 166
 97.800 156
 97.820 158
 97.840 156
 97.860 163
 97.880 144
 97.900 163
 97.920 153
 97.940 174
 97.960 158
 97.980 158
 98.000 169
 98.020 158
 98.040 158
 98.060 148
 98.080 134
 98.100 136
 98.120 163
 98.140 123
 98.160 148
 98.180 127
 98.200 127
 98.220 129
 98.240 144
 98.260 144
 98.280 139
 98.300 161
 98.320 146
 98.340 139
 98.360 151
 98.380 151
 98.400 148
 98.420 136
 98.440 139
 98.460 148
 98.480 158
 98.500 148
 98.520 129
 98.540 153
 98.560 139
 98.580 146
 98.600 134
 98.620 146
 98.640 129
 98.660 134
 98.680 136
 98.700 151
 98.720 129
 98.740 151
 98.760 153
 98.780 144
 98.800 136
 98.820 136
 98.840 125
 98.860 153
 98.880 129
 98.900 129
 98.920 129
 98.940 136
 98.960 116
 98.980 129
 99.000 144
 99.020 139
 99.040 123
 99.060 141
 99.080 156
 99.100 129
 99.120 132
 99.140 139
 99.160 121
 99.180 132
 99.200 125
 99.220 136
 99.240 136
 99.260 144
 99.280 148
 99.300 123
 99.320 148
 99.340 110
 99.360 125
 99.380 141
 99.400 141
 99.420 144
 99.440 121
 99.460 121
 99.480 144
 99.500 125
 99.520 127
 99.540 132
 99.560 129
 99.580 104
 99.600 153
 99.620 96
 99.640 148
 99.660 123
 99.680 125
 99.700 118
 99.720 141
 99.740 127
 99.760 144
 99.780 121
 99.800 110
 99.820 116
 99.840 129
 99.860 146
 99.880 129
 99.900 129
 99.920 136
 99.940 156
 99.960 116
 99.980 129
100.000 139
