  5.000 252
  5.020 246
  5.040 222
  5.060 228
  5.080 231
  5.100 213
  5.120 225
  5.140 225
  5.160 210
  5.180 225
  5.200 216
  5.220 207
  5.240 231
  5.260 193
  5.280 225
  5.300 207
  5.320 219
  5.340 196
  5.360 234
  5.380 210
  5.400 213
  5.420 210
  5.440 198
  5.460 193
  5.480 201
  5.500 207
  5.520 225
  5.540 198
  5.560 184
  5.580 228
  5.600 219
  5.620 210
  5.640 225
  5.660 222
  5.680 204
  5.700 196
  5.720 193
  5.740 234
  5.760 210
  5.780 187
  5.800 196
  5.820 196
  5.840 222
  5.860 176
  5.880 198
  5.900 234
  5.920 222
  5.940 222
  5.960 231
  5.980 222
  6.000 204
  6.020 187
  6.040 207
  6.060 216
  6.080 207
  6.100 213
  6.120 240
  6.140 179
  6.160 213
  6.180 222
  6.200 201
  6.220 219
  6.240 210
  6.260 219
  6.280 225
  6.300 231
  6.320 198
  6.340 231
  6.360 201
  6.380 222
  6.400 187
  6.420 216
  6.440 207
  6.460 198
  6.480 213
  6.500 234
  6.520 234
  6.540 252
  6.560 228
  6.580 234
  6.600 231
  6.620 237
  6.640 231
  6.660 275
  6.680 256
  6.700 237
  6.720 272
  6.740 259
  6.760 285
  6.780 256
  6.800 282
  6.820 289
  6.840 278
  6.860 282
  6.880 302
  6.900 324
  6.920 361
  6.940 380
  6.960 400
  6.980 449
  7.000 538
  7.020 470
  7.040 580
  7.060 670
  7.080 665
  7.100 734
  7.120 806
  7.140 930
  7.160 1089
  7.180 1246
  7.200 1521
  7.220 1738
  7.240 2088
  7.260 2352
  7.280 2611
  7.300 2621
  7.320 2590
  7.340 2652
  7.360 2959
  7.380 3504
  7.400 3881
  7.420 4251
  7.440 4610
  7.460 5140
  7.480 5760
  7.500 6609
  7.520 7656
  7.540 9273
  7.560 11513
  7.580 13456
  7.600 15178
  7.620 17213
  7.640 18933
  7.660 21550
  7.680 24398
  7.700 29104
  7.720 33672
  7.740 40200
  7.760 47785
  7.780 57600
  7.800 70331
  7.820 87616
  7.840 104716
  7.860 126664
  7.880 154527
  7.900 189834
  7.920 246313
  7.940 334199
  7.960 443422
  7.980 573351
  8.000 700736
  8.020 804609
  8.040 841072
  8.060 797806
  8.080 684259
  8.100 524610
  8.120 350227
  8.140 202500
  8.160 105105
  8.180 53963
  8.200 29241
  8.220 18577
  8.240 13782
  8.260 11363
  8.280 9331
  8.300 7796
  8.320 6115
  8.340 4356
  8.360 3124
  8.380 2180
  8.400 1568
  8.420 1183
  8.440 1004
  8.460 795
  8.480 772
  8.500 635
  8.520 590
  8.540 501
  8.560 470
  8.580 424
  8.600 408
  8.620 400
  8.640 338
  8.660 357
  8.680 327
  8.700 320
  8.720 306
  8.740 246
  8.760 289
  8.780 234
  8.800 231
  8.820 219
  8.840 234
  8.860 219
  8.880 228
  8.900 196
  8.920 163
  8.940 198
  8.960 184
  8.980 210
  9.000 184
  9.020 198
  9.040 153
  9.060 176
  9.080 182
  9.100 163
  9.120 171
  9.140 176
  9.160 136
  9.180 166
  9.200 174
  9.220 163
  9.240 161
  9.260 169
  9.280 158
  9.300 151
  9.320 158
  9.340 146
  9.360 146
  9.380 158
  9.400 136
  9.420 158
  9.440 161
  9.460 144
  9.480 148
  9.500 125
  9.520 151
  9.540 139
  9.560 163
  9.580 163
  9.600 129
  9.620 123
  9.640 129
  9.660 141
  9.680 125
  9.700 148
  9.720 116
  9.740 132
  9.760 121
  9.780 153
  9.800 116
  9.820 129
  9.840 129
  9.860 123
  9.880 136
  9.900 134
  9.920 144
  9.940 144
  9.960 110
  9.980 134
 10.000 132
 10.020 125
 10.040 118
 10.060 121
 10.080 146
 10.100 125
 10.120 136
 10.140 116
 10.160 118
 10.180 104
 10.200 123
 10.220 134
 10.240 144
 10.260 100
 10.280 129
 10.300 112
 10.320 123
 10.340 116
 10.360 121
 10.380 134
 10.400 118
 10.420 127
 10.440 129
 10.460 141
 10.480 110
 10.500 141
 10.520 129
 10.540 114
 10.560 127
 10.580 127
 10.600 116
 10.620 123
 10.640 118
 10.660 125
 10.680 129
 10.700 129
 10.720 129
 10.740 144
 10.760 114
 10.780 132
 10.800 132
 10.820 116
 10.840 129
 10.860 136
 10.880 118
 10.900 116
 10.920 151
 10.940 118
 10.960 127
 10.980 102
 11.000 134
 11.020 118
 11.040 132
 11.060 110
 11.080 132
 11.100 129
 11.120 114
 11.140 106
 11.160 127
 11.180 136
 11.200 118
 11.220 136
 11.240 127
 11.260 129
 11.280 134
 11.300 112
 11.320 144
 11.340 121
 11.360 106
 11.380 129
 11.400 123
 11.420 134
 11.440 139
 11.460 144
 11.480 112
 11.500 110
 11.520 144
 11.540 129
 11.560 116
 11.580 134
 11.600 144
 11.620 121
 11.640 123
 11.660 158
 11.680 125
 11.700 136
 11.720 125
 11.740 125
 11.760 139
 11.780 129
 11.800 136
 11.820 112
 11.840 123
 11.860 146
 11.880 153
 11.900 132
 11.920 148
 11.940 108
 11.960 144
 11.980 144
 12.000 132
 12.020 144
 12.040 141
 12.060 153
 12.080 127
 12.100 156
 12.120 136
 12.140 144
 12.160 132
 12.180 148
 12.200 134
 12.220 156
 12.240 144
 12.260 146
 12.280 136
 12.300 123
 12.320 134
 12.340 144
 12.360 151
 12.380 136
 12.400 136
 12.420 153
 12.440 134
 12.460 132
 12.480 141
 12.500 118
 12.520 139
 12.540 134
 12.560 129
 12.580 136
 12.600 134
 12.620 136
 12.640 125
 12.660 136
 12.680 134
 12.700 123
 12.720 127
 12.740 121
 12.760 136
 12.780 123
 12.800 148
 12.820 125
 12.840 127
 12.860 151
 12.880 110
 12.900 139
 12.920 141
 12.940 141
 12.960 136
 12.980 116
 13.000 141
 13.020 116
 13.040 134
 13.060 129
 13.080 158
 13.100 134
 13.120 129
 13.140 132
 13.160 132
 13.180 121
 13.200 144
 13.220 134
 13.240 158
 13.260 151
 13.280 116
 13.300 144
 13.320 129
 13.340 136
 13.360 136
 13.380 146
 13.400 139
 13.420 123
 13.440 134
 13.460 121
 13.480 141
 13.500 134
 13.520 132
 13.540 153
 13.560 129
 13.580 139
 13.600 129
 13.620 141
 13.640 156
 13.660 134
 13.680 144
 13.700 123
 13.720 139
 13.740 141
 13.760 146
 13.780 139
 13.800 136
 13.820 148
 13.840 144
 13.860 153
 13.880 129
 13.900 144
 13.920 161
 13.940 166
 13.960 146
 13.980 144
 14.000 156
 14.020 148
 14.040 125
 14.060 141
 14.080 156
 14.100 151
 14.120 129
 14.140 174
 14.160 148
 14.180 153
 14.200 153
 14.220 174
 14.240 163
 14.260 169
 14.280 174
 14.300 151
 14.320 179
 14.340 182
 14.360 184
 14.380 163
 14.400 179
 14.420 201
 14.440 225
 14.460 234
 14.480 222
 14.500 252
 14.520 231
 14.540 234
 14.560 256
 14.580 182
 14.600 190
 14.620 179
 14.640 166
 14.660 187
 14.680 174
 14.700 148
 14.720 176
 14.740 179
 14.760 182
 14.780 174
 14.800 210
 14.820 198
 14.840 187
 14.860 190
 14.880 201
 14.900 190
 14.920 204
 14.940 176
 14.960 198
 14.980 196
 15.000 182
 15.020 196
 15.040 219
 15.060 225
 15.080 196
 15.100 187
 15.120 213
 15.140 228
 15.160 231
 15.180 246
 15.200 225
 15.220 252
 15.240 237
 15.260 278
 15.280 265
 15.300 295
 15.320 357
 15.340 309
 15.360 357
 15.380 424
 15.400 388
 15.420 470
 15.440 547
 15.460 571
 15.480 655
 15.500 676
 15.520 800
 15.540 906
 15.560 1043
 15.580 1169
 15.600 1383
 15.620 1648
 15.640 1900
 15.660 2227
 15.680 2480
 15.700 2894
 15.720 3552
 15.740 4212
 15.760 4872
 15.780 5852
 15.800 7039
 15.820 8873
 15.840 10836
 15.860 13689
 15.880 17503
 15.900 21520
 15.920 26114
 15.940 30485
 15.960 35118
 15.980 41452
 16.000 51030
 16.020 62050
 16.040 71182
 16.060 76452
 16.080 75460
 16.100 67340
 16.120 54149
 16.140 38298
 16.160 22680
 16.180 11664
 16.200 5867
 16.220 2992
 16.240 2043
 16.260 1713
 16.280 1497
 16.300 1267
 16.320 1211
 16.340 1062
 16.360 961
 16.380 750
 16.400 615
 16.420 538
 16.440 453
 16.460 428
 16.480 364
 16.500 331
 16.520 345
 16.540 306
 16.560 320
 16.580 302
 16.600 282
 16.620 225
 16.640 256
 16.660 228
 16.680 228
 16.700 216
 16.720 240
 16.740 201
 16.760 222
 16.780 196
 16.800 207
 16.820 190
 16.840 210
 16.860 201
 16.880 163
 16.900 171
 16.920 198
 16.940 193
 16.960 193
 16.980 187
 17.000 179
 17.020 193
 17.040 179
 17.060 158
 17.080 161
 17.100 182
 17.120 182
 17.140 184
 17.160 193
 17.180 198
 17.200 184
 17.220 193
 17.240 196
 17.260 207
 17.280 198
 17.300 213
 17.320 210
 17.340 196
 17.360 219
 17.380 196
 17.400 234
 17.420 246
 17.440 272
 17.460 256
 17.480 338
 17.500 338
 17.520 384
 17.540 432
 17.560 449
 17.580 547
 17.600 580
 17.620 718
 17.640 1030
 17.660 1274
 17.680 1697
 17.700 2088
 17.720 2410
 17.740 2420
 17.760 2490
 17.780 2480
 17.800 2724
 17.820 2926
 17.840 3306
 17.860 4238
 17.880 5012
 17.900 5461
 17.920 5670
 17.940 5184
 17.960 4173
 17.980 3192
 18.000 2265
 18.020 1632
 18.040 1056
 18.060 734
 18.080 625
 18.100 538
 18.120 475
 18.140 466
 18.160 475
 18.180 488
 18.200 488
 18.220 552
 18.240 655
 18.260 686
 18.280 734
 18.300 858
 18.320 900
 18.340 930
 18.360 954
 18.380 973
 18.400 870
 18.420 745
 18.440 640
 18.460 529
 18.480 400
 18.500 327
 18.520 268
 18.540 228
 18.560 216
 18.580 210
 18.600 193
 18.620 190
 18.640 198
 18.660 198
 18.680 210
 18.700 210
 18.720 213
 18.740 246
 18.760 225
 18.780 231
 18.800 275
 18.820 262
 18.840 268
 18.860 302
 18.880 327
 18.900 327
 18.920 384
 18.940 396
 18.960 420
 18.980 506
 19.000 566
 19.020 600
 19.040 650
 19.060 702
 19.080 817
 19.100 846
 19.120 942
 19.140 1062
 19.160 1156
 19.180 1246
 19.200 1303
 19.220 1361
 19.240 1260
 19.260 1190
 19.280 979
 19.300 888
 19.320 812
 19.340 600
 19.360 412
 19.380 349
 19.400 309
 19.420 275
 19.440 292
 19.460 282
 19.480 285
 19.500 268
 19.520 299
 19.540 309
 19.560 299
 19.580 316
 19.600 320
 19.620 324
 19.640 353
 19.660 327
 19.680 295
 19.700 272
 19.720 275
 19.740 275
 19.760 234
 19.780 216
 19.800 225
 19.820 182
 19.840 176
 19.860 207
 19.880 176
 19.900 153
 19.920 166
 19.940 174
 19.960 182
 19.980 193
 20.000 182
 20.020 176
 20.040 184
 20.060 166
 20.080 158
 20.100 153
 20.120 166
 20.140 163
 20.160 163
 20.180 171
 20.200 153
 20.220 184
 20.240 158
 20.260 148
 20.280 163
 20.300 193
 20.320 169
 20.340 158
 20.360 163
 20.380 193
 20.400 139
 20.420 169
 20.440 163
 20.460 176
 20.480 171
 20.500 176
 20.520 166
 20.540 179
 20.560 179
 20.580 182
 20.600 182
 20.620 184
 20.640 179
 20.660 193
 20.680 174
 20.700 169
 20.720 161
 20.740 213
 20.760 176
 20.780 198
 20.800 196
 20.820 201
 20.840 184
 20.860 171
 20.880 198
 20.900 201
 20.920 187
 20.940 231
 20.960 193
 20.980 210
 21.000 222
 21.020 234
 21.040 237
 21.060 219
 21.080 237
 21.100 282
 21.120 268
 21.140 299
 21.160 327
 21.180 345
 21.200 368
 21.220 357
 21.240 376
 21.260 441
 21.280 470
 21.300 488
 21.320 492
 21.340 600
 21.360 645
 21.380 723
 21.400 812
 21.420 936
 21.440 1128
 21.460 1281
 21.480 1406
 21.500 1489
 21.520 1616
 21.540 1672
 21.560 1849
 21.580 2025
 21.600 2246
 21.620 2371
 21.640 2550
 21.660 2490
 21.680 2430
 21.700 2323
 21.720 2152
 21.740 1927
 21.760 1664
 21.780 1406
 21.800 1190
 21.820 1089
 21.840 1030
 21.860 942
 21.880 1017
 21.900 1024
 21.920 985
 21.940 948
 21.960 906
 21.980 888
 22.000 784
 22.020 718
 22.040 625
 22.060 497
 22.080 432
 22.100 324
 22.120 272
 22.140 265
 22.160 207
 22.180 234
 22.200 210
 22.220 198
 22.240 201
 22.260 179
 22.280 187
 22.300 196
 22.320 198
 22.340 193
 22.360 198
 22.380 201
 22.400 193
 22.420 179
 22.440 176
 22.460 184
 22.480 187
 22.500 171
 22.520 196
 22.540 219
 22.560 196
 22.580 174
 22.600 182
 22.620 201
 22.640 182
 22.660 204
 22.680 234
 22.700 201
 22.720 187
 22.740 158
 22.760 210
 22.780 174
 22.800 184
 22.820 190
 22.840 196
 22.860 198
 22.880 193
 22.900 228
 22.920 198
 22.940 213
 22.960 207
 22.980 234
 23.000 228
 23.020 240
 23.040 228
 23.060 234
 23.080 228
 23.100 222
 23.120 265
 23.140 240
 23.160 243
 23.180 282
 23.200 265
 23.220 249
 23.240 249
 23.260 289
 23.280 292
 23.300 353
 23.320 345
 23.340 396
 23.360 408
 23.380 449
 23.400 529
 23.420 585
 23.440 681
 23.460 645
 23.480 750
 23.500 835
 23.520 858
 23.540 930
 23.560 1024
 23.580 1075
 23.600 1225
 23.620 1310
 23.640 1406
 23.660 1521
 23.680 1689
 23.700 1892
 23.720 2043
 23.740 2152
 23.760 2313
 23.780 2470
 23.800 2672
 23.820 2724
 23.840 2745
 23.860 2672
 23.880 2683
 23.900 2809
 23.920 2981
 23.940 3294
 23.960 3769
 23.980 4422
 24.000 5126
 24.020 5867
 24.040 6544
 24.060 7656
 24.080 9063
 24.100 10878
 24.120 12166
 24.140 13947
 24.160 14932
 24.180 14908
 24.200 13782
 24.220 11707
 24.240 9177
 24.260 6416
 24.280 4147
 24.300 2662
 24.320 1584
 24.340 1017
 24.360 812
 24.380 686
 24.400 547
 24.420 556
 24.440 524
 24.460 470
 24.480 416
 24.500 400
 24.520 372
 24.540 353
 24.560 353
 24.580 338
 24.600 299
 24.620 316
 24.640 313
 24.660 316
 24.680 285
 24.700 292
 24.720 285
 24.740 278
 24.760 306
 24.780 292
 24.800 262
 24.820 262
 24.840 246
 24.860 295
 24.880 256
 24.900 295
 24.920 275
 24.940 249
 24.960 259
 24.980 256
 25.000 275
 25.020 278
 25.040 252
 25.060 246
 25.080 237
 25.100 252
 25.120 265
 25.140 285
 25.160 246
 25.180 272
 25.200 275
 25.220 256
 25.240 299
 25.260 252
 25.280 292
 25.300 272
 25.320 249
 25.340 275
 25.360 216
 25.380 265
 25.400 265
 25.420 289
 25.440 285
 25.460 292
 25.480 320
 25.500 309
 25.520 313
 25.540 342
 25.560 349
 25.580 338
 25.600 353
 25.620 388
 25.640 420
 25.660 388
 25.680 497
 25.700 515
 25.720 552
 25.740 561
 25.760 645
 25.780 686
 25.800 750
 25.820 846
 25.840 870
 25.860 979
 25.880 1082
 25.900 1239
 25.920 1406
 25.940 1576
 25.960 1764
 25.980 2007
 26.000 2097
 26.020 2061
 26.040 2025
 26.060 1883
 26.080 1616
 26.100 1376
 26.120 1197
 26.140 888
 26.160 778
 26.180 605
 26.200 501
 26.220 420
 26.240 424
 26.260 392
 26.280 324
 26.300 396
 26.320 357
 26.340 404
 26.360 380
 26.380 441
 26.400 396
 26.420 449
 26.440 412
 26.460 436
 26.480 479
 26.500 470
 26.520 524
 26.540 571
 26.560 600
 26.580 712
 26.600 691
 26.620 789
 26.640 900
 26.660 967
 26.680 979
 26.700 1011
 26.720 1082
 26.740 1011
 26.760 1043
 26.780 1108
 26.800 1122
 26.820 1149
 26.840 1274
 26.860 1398
 26.880 1656
 26.900 1823
 26.920 1953
 26.940 2043
 26.960 2246
 26.980 2381
 27.000 2540
 27.020 2550
 27.040 2450
 27.060 2218
 27.080 1918
 27.100 1616
 27.120 1339
 27.140 1102
 27.160 858
 27.180 750
 27.200 561
 27.220 475
 27.240 432
 27.260 408
 27.280 380
 27.300 342
 27.320 299
 27.340 349
 27.360 338
 27.380 299
 27.400 313
 27.420 331
 27.440 302
 27.460 331
 27.480 313
 27.500 320
 27.520 302
 27.540 285
 27.560 295
 27.580 331
 27.600 338
 27.620 338
 27.640 306
 27.660 313
 27.680 327
 27.700 327
 27.720 309
 27.740 292
 27.760 313
 27.780 306
 27.800 309
 27.820 306
 27.840 342
 27.860 306
 27.880 320
 27.900 302
 27.920 309
 27.940 306
 27.960 324
 27.980 324
 28.000 316
 28.020 316
 28.040 320
 28.060 299
 28.080 313
 28.100 327
 28.120 309
 28.140 342
 28.160 320
 28.180 331
 28.200 289
 28.220 353
 28.240 324
 28.260 376
 28.280 345
 28.300 306
 28.320 338
 28.340 368
 28.360 302
 28.380 353
 28.400 342
 28.420 345
 28.440 368
 28.460 338
 28.480 345
 28.500 353
 28.520 380
 28.540 368
 28.560 372
 28.580 372
 28.600 376
 28.620 361
 28.640 353
 28.660 404
 28.680 432
 28.700 376
 28.720 453
 28.740 445
 28.760 453
 28.780 436
 28.800 449
 28.820 462
 28.840 432
 28.860 392
 28.880 416
 28.900 436
 28.920 408
 28.940 428
 28.960 428
 28.980 445
 29.000 441
 29.020 475
 29.040 457
 29.060 462
 29.080 492
 29.100 547
 29.120 600
 29.140 615
 29.160 670
 29.180 723
 29.200 756
 29.220 729
 29.240 745
 29.260 712
 29.280 665
 29.300 707
 29.320 665
 29.340 745
 29.360 750
 29.380 750
 29.400 702
 29.420 686
 29.440 630
 29.460 620
 29.480 580
 29.500 561
 29.520 529
 29.540 556
 29.560 475
 29.580 484
 29.600 501
 29.620 506
 29.640 524
 29.660 501
 29.680 497
 29.700 533
 29.720 556
 29.740 580
 29.760 552
 29.780 600
 29.800 681
 29.820 712
 29.840 750
 29.860 852
 29.880 823
 29.900 882
 29.920 906
 29.940 876
 29.960 912
 29.980 967
 30.000 906
 30.020 954
 30.040 1082
 30.060 1049
 30.080 1169
 30.100 1274
 30.120 1310
 30.140 1436
 30.160 1459
 30.180 1592
 30.200 1576
 30.220 1497
 30.240 1444
 30.260 1398
 30.280 1176
 30.300 1102
 30.320 918
 30.340 876
 30.360 778
 30.380 670
 30.400 600
 30.420 533
 30.440 538
 30.460 547
 30.480 585
 30.500 561
 30.520 497
 30.540 533
 30.560 547
 30.580 542
 30.600 552
 30.620 547
 30.640 580
 30.660 561
 30.680 552
 30.700 524
 30.720 615
 30.740 519
 30.760 571
 30.780 585
 30.800 585
 30.820 566
 30.840 580
 30.860 561
 30.880 585
 30.900 590
 30.920 580
 30.940 655
 30.960 723
 30.980 707
 31.000 681
 31.020 707
 31.040 691
 31.060 702
 31.080 665
 31.100 712
 31.120 686
 31.140 676
 31.160 750
 31.180 734
 31.200 795
 31.220 756
 31.240 823
 31.260 817
 31.280 823
 31.300 829
 31.320 852
 31.340 912
 31.360 918
 31.380 967
 31.400 1011
 31.420 1004
 31.440 1089
 31.460 1169
 31.480 1267
 31.500 1225
 31.520 1354
 31.540 1398
 31.560 1459
 31.580 1600
 31.600 1689
 31.620 1764
 31.640 1962
 31.660 2079
 31.680 2391
 31.700 2777
 31.720 3169
 31.740 3516
 31.760 3844
 31.780 4199
 31.800 5055
 31.820 5550
 31.840 6130
 31.860 6528
 31.880 7056
 31.900 8046
 31.920 8704
 31.940 9350
 31.960 10140
 31.980 10983
 32.000 12254
 32.020 13735
 32.040 15775
 32.060 17187
 32.080 19182
 32.100 22230
 32.120 24932
 32.140 27955
 32.160 31506
 32.180 35948
 32.200 41820
 32.220 48356
 32.240 55507
 32.260 64770
 32.280 75955
 32.300 94126
 32.320 116622
 32.340 140625
 32.360 155630
 32.380 160400
 32.400 155157
 32.420 140550
 32.440 120756
 32.460 99225
 32.480 75955
 32.500 56026
 32.520 38848
 32.540 25760
 32.560 16512
 32.580 10836
 32.600 7656
 32.620 6225
 32.640 5256
 32.660 4529
 32.680 3856
 32.700 3516
 32.720 3158
 32.740 2756
 32.760 2530
 32.780 2313
 32.800 2218
 32.820 2097
 32.840 1971
 32.860 1883
 32.880 1936
 32.900 1883
 32.920 1814
 32.940 1874
 32.960 1918
 32.980 2106
 33.000 2134
 33.020 2294
 33.040 2530
 33.060 2520
 33.080 2704
 33.100 2683
 33.120 2777
 33.140 2948
 33.160 3249
 33.180 3249
 33.200 3422
 33.220 3844
 33.240 4070
 33.260 4569
 33.280 5012
 33.300 5565
 33.320 6209
 33.340 6448
 33.360 6368
 33.380 6084
 33.400 5535
 33.420 5169
 33.440 4774
 33.460 4160
 33.480 3733
 33.500 3492
 33.520 3329
 33.540 3306
 33.560 3317
 33.580 3398
 33.600 3564
 33.620 3329
 33.640 3422
 33.660 3124
 33.680 2905
 33.700 2724
 33.720 2371
 33.740 2016
 33.760 1747
 33.780 1376
 33.800 1346
 33.820 1135
 33.840 1036
 33.860 961
 33.880 882
 33.900 858
 33.920 864
 33.940 806
 33.960 835
 33.980 829
 34.000 772
 34.020 789
 34.040 767
 34.060 734
 34.080 696
 34.100 686
 34.120 712
 34.140 650
 34.160 696
 34.180 660
 34.200 686
 34.220 635
 34.240 650
 34.260 625
 34.280 620
 34.300 640
 34.320 645
 34.340 625
 34.360 660
 34.380 630
 34.400 650
 34.420 681
 34.440 665
 34.460 691
 34.480 660
 34.500 691
 34.520 670
 34.540 665
 34.560 723
 34.580 739
 34.600 723
 34.620 718
 34.640 778
 34.660 696
 34.680 761
 34.700 745
 34.720 789
 34.740 778
 34.760 784
 34.780 812
 34.800 829
 34.820 852
 34.840 912
 34.860 961
 34.880 985
 34.900 1011
 34.920 1089
 34.940 1024
 34.960 1036
 34.980 1075
 35.000 1135
 35.020 1115
 35.040 1135
 35.060 1211
 35.080 1069
 35.100 1043
 35.120 1004
 35.140 918
 35.160 900
 35.180 858
 35.200 812
 35.220 812
 35.240 778
 35.260 789
 35.280 800
 35.300 829
 35.320 841
 35.340 846
 35.360 846
 35.380 829
 35.400 812
 35.420 812
 35.440 835
 35.460 852
 35.480 876
 35.500 894
 35.520 912
 35.540 930
 35.560 967
 35.580 924
 35.600 900
 35.620 870
 35.640 930
 35.660 852
 35.680 858
 35.700 841
 35.720 817
 35.740 756
 35.760 767
 35.780 739
 35.800 870
 35.820 876
 35.840 870
 35.860 912
 35.880 948
 35.900 1049
 35.920 1089
 35.940 1036
 35.960 1024
 35.980 1024
 36.000 998
 36.020 942
 36.040 942
 36.060 912
 36.080 882
 36.100 876
 36.120 817
 36.140 930
 36.160 894
 36.180 973
 36.200 1102
 36.220 1183
 36.240 1162
 36.260 1075
 36.280 1056
 36.300 1004
 36.320 924
 36.340 864
 36.360 784
 36.380 702
 36.400 676
 36.420 605
 36.440 640
 36.460 605
 36.480 640
 36.500 645
 36.520 650
 36.540 645
 36.560 615
 36.580 635
 36.600 702
 36.620 676
 36.640 630
 36.660 676
 36.680 718
 36.700 718
 36.720 734
 36.740 795
 36.760 812
 36.780 870
 36.800 936
 36.820 979
 36.840 1089
 36.860 1062
 36.880 1169
 36.900 1204
 36.920 1253
 36.940 1361
 36.960 1376
 36.980 1317
 37.000 1369
 37.020 1391
 37.040 1436
 37.060 1324
 37.080 1246
 37.100 1225
 37.120 1225
 37.140 1232
 37.160 1303
 37.180 1274
 37.200 1274
 37.220 1211
 37.240 1204
 37.260 1162
 37.280 1149
 37.300 1017
 37.320 1030
 37.340 930
 37.360 870
 37.380 852
 37.400 767
 37.420 745
 37.440 665
 37.460 615
 37.480 630
 37.500 625
 37.520 625
 37.540 640
 37.560 635
 37.580 571
 37.600 571
 37.620 547
 37.640 542
 37.660 533
 37.680 529
 37.700 524
 37.720 524
 37.740 533
 37.760 497
 37.780 519
 37.800 501
 37.820 484
 37.840 519
 37.860 529
 37.880 538
 37.900 547
 37.920 580
 37.940 571
 37.960 620
 37.980 590
 38.000 640
 38.020 630
 38.040 707
 38.060 702
 38.080 723
 38.100 761
 38.120 778
 38.140 772
 38.160 846
 38.180 750
 38.200 784
 38.220 739
 38.240 767
 38.260 750
 38.280 712
 38.300 640
 38.320 620
 38.340 605
 38.360 655
 38.380 600
 38.400 605
 38.420 615
 38.440 585
 38.460 600
 38.480 561
 38.500 620
 38.520 660
 38.540 655
 38.560 734
 38.580 707
 38.600 696
 38.620 707
 38.640 580
 38.660 571
 38.680 529
 38.700 538
 38.720 492
 38.740 475
 38.760 445
 38.780 484
 38.800 432
 38.820 441
 38.840 412
 38.860 420
 38.880 449
 38.900 462
 38.920 484
 38.940 432
 38.960 436
 38.980 462
 39.000 484
 39.020 436
 39.040 466
 39.060 492
 39.080 466
 39.100 475
 39.120 462
 39.140 462
 39.160 479
 39.180 479
 39.200 484
 39.220 484
 39.240 533
 39.260 561
 39.280 566
 39.300 542
 39.320 552
 39.340 566
 39.360 590
 39.380 615
 39.400 625
 39.420 660
 39.440 665
 39.460 635
 39.480 729
 39.500 630
 39.520 712
 39.540 696
 39.560 681
 39.580 665
 39.600 600
 39.620 670
 39.640 645
 39.660 615
 39.680 630
 39.700 566
 39.720 571
 39.740 595
 39.760 561
 39.780 571
 39.800 640
 39.820 595
 39.840 576
 39.860 605
 39.880 615
 39.900 676
 39.920 650
 39.940 640
 39.960 723
 39.980 718
 40.000 712
 40.020 734
 40.040 823
 40.060 835
 40.080 967
 40.100 1004
 40.120 1062
 40.140 1225
 40.160 1211
 40.180 1310
 40.200 1376
 40.220 1592
 40.240 1831
 40.260 2007
 40.280 2116
 40.300 2116
 40.320 2371
 40.340 2500
 40.360 2631
 40.380 2798
 40.400 2970
 40.420 3237
 40.440 3445
 40.460 3745
 40.480 3994
 40.500 4408
 40.520 4610
 40.540 5198
 40.560 6006
 40.580 6432
 40.600 7242
 40.620 8154
 40.640 9082
 40.660 10100
 40.680 11599
 40.700 13782
 40.720 17030
 40.740 20764
 40.760 23225
 40.780 23746
 40.800 22201
 40.820 20192
 40.840 17768
 40.860 15825
 40.880 13806
 40.900 11664
 40.920 9254
 40.940 7396
 40.960 5198
 40.980 3931
 41.000 2916
 41.020 2209
 41.040 1840
 41.060 1616
 41.080 1428
 41.100 1317
 41.120 1128
 41.140 1004
 41.160 864
 41.180 778
 41.200 745
 41.220 660
 41.240 610
 41.260 615
 41.280 552
 41.300 571
 41.320 576
 41.340 524
 41.360 533
 41.380 510
 41.400 533
 41.420 497
 41.440 475
 41.460 492
 41.480 542
 41.500 484
 41.520 488
 41.540 492
 41.560 457
 41.580 542
 41.600 533
 41.620 571
 41.640 542
 41.660 561
 41.680 519
 41.700 556
 41.720 571
 41.740 580
 41.760 605
 41.780 571
 41.800 605
 41.820 576
 41.840 645
 41.860 519
 41.880 519
 41.900 552
 41.920 497
 41.940 475
 41.960 501
 41.980 453
 42.000 497
 42.020 462
 42.040 515
 42.060 484
 42.080 453
 42.100 492
 42.120 501
 42.140 484
 42.160 506
 42.180 479
 42.200 484
 42.220 445
 42.240 424
 42.260 445
 42.280 380
 42.300 380
 42.320 380
 42.340 327
 42.360 338
 42.380 320
 42.400 345
 42.420 331
 42.440 342
 42.460 278
 42.480 331
 42.500 324
 42.520 302
 42.540 327
 42.560 331
 42.580 306
 42.600 275
 42.620 309
 42.640 299
 42.660 324
 42.680 313
 42.700 306
 42.720 320
 42.740 272
 42.760 256
 42.780 309
 42.800 292
 42.820 306
 42.840 316
 42.860 327
 42.880 282
 42.900 320
 42.920 320
 42.940 327
 42.960 324
 42.980 285
 43.000 338
 43.020 313
 43.040 295
 43.060 316
 43.080 299
 43.100 320
 43.120 316
 43.140 306
 43.160 309
 43.180 309
 43.200 295
 43.220 324
 43.240 309
 43.260 272
 43.280 292
 43.300 292
 43.320 316
 43.340 246
 43.360 313
 43.380 289
 43.400 285
 43.420 265
 43.440 306
 43.460 272
 43.480 262
 43.500 265
 43.520 265
 43.540 265
 43.560 278
 43.580 231
 43.600 256
 43.620 278
 43.640 265
 43.660 289
 43.680 282
 43.700 289
 43.720 262
 43.740 306
 43.760 282
 43.780 299
 43.800 265
 43.820 316
 43.840 292
 43.860 285
 43.880 313
 43.900 345
 43.920 334
 43.940 320
 43.960 380
 43.980 345
 44.000 320
 44.020 334
 44.040 349
 44.060 357
 44.080 380
 44.100 331
 44.120 342
 44.140 309
 44.160 302
 44.180 282
 44.200 324
 44.220 306
 44.240 275
 44.260 292
 44.280 299
 44.300 306
 44.320 275
 44.340 282
 44.360 320
 44.380 324
 44.400 313
 44.420 338
 44.440 331
 44.460 345
 44.480 324
 44.500 327
 44.520 372
 44.540 342
 44.560 327
 44.580 353
 44.600 320
 44.620 327
 44.640 316
 44.660 331
 44.680 324
 44.700 295
 44.720 306
 44.740 282
 44.760 299
 44.780 289
 44.800 275
 44.820 299
 44.840 249
 44.860 275
 44.880 292
 44.900 313
 44.920 268
 44.940 252
 44.960 268
 44.980 256
 45.000 252
 45.020 268
 45.040 259
 45.060 285
 45.080 268
 45.100 268
 45.120 259
 45.140 302
 45.160 268
 45.180 278
 45.200 246
 45.220 289
 45.240 289
 45.260 259
 45.280 243
 45.300 252
 45.320 278
 45.340 259
 45.360 272
 45.380 262
 45.400 272
 45.420 265
 45.440 246
 45.460 289
 45.480 285
 45.500 275
 45.520 282
 45.540 268
 45.560 316
 45.580 327
 45.600 324
 45.620 331
 45.640 349
 45.660 376
 45.680 361
 45.700 372
 45.720 364
 45.740 364
 45.760 396
 45.780 416
 45.800 400
 45.820 396
 45.840 380
 45.860 392
 45.880 408
 45.900 384
 45.920 392
 45.940 392
 45.960 392
 45.980 380
 46.000 404
 46.020 357
 46.040 345
 46.060 388
 46.080 361
 46.100 327
 46.120 353
 46.140 327
 46.160 331
 46.180 306
 46.200 334
 46.220 353
 46.240 342
 46.260 361
 46.280 361
 46.300 342
 46.320 380
 46.340 376
 46.360 388
 46.380 388
 46.400 400
 46.420 368
 46.440 361
 46.460 412
 46.480 388
 46.500 428
 46.520 416
 46.540 416
 46.560 396
 46.580 368
 46.600 412
 46.620 342
 46.640 349
 46.660 313
 46.680 320
 46.700 299
 46.720 313
 46.740 282
 46.760 275
 46.780 289
 46.800 278
 46.820 292
 46.840 249
 46.860 282
 46.880 292
 46.900 275
 46.920 278
 46.940 292
 46.960 282
 46.980 285
 47.000 292
 47.020 289
 47.040 262
 47.060 246
 47.080 252
 47.100 259
 47.120 249
 47.140 259
 47.160 246
 47.180 243
 47.200 234
 47.220 262
 47.240 240
 47.260 228
 47.280 228
 47.300 259
 47.320 225
 47.340 225
 47.360 246
 47.380 237
 47.400 275
 47.420 243
 47.440 249
 47.460 243
 47.480 219
 47.500 231
 47.520 252
 47.540 243
 47.560 207
 47.580 243
 47.600 259
 47.620 240
 47.640 252
 47.660 219
 47.680 252
 47.700 256
 47.720 228
 47.740 228
 47.760 252
 47.780 272
 47.800 252
 47.820 262
 47.840 278
 47.860 237
 47.880 268
 47.900 262
 47.920 275
 47.940 272
 47.960 265
 47.980 234
 48.000 289
 48.020 289
 48.040 246
 48.060 246
 48.080 246
 48.100 278
 48.120 275
 48.140 313
 48.160 349
 48.180 342
 48.200 376
 48.220 376
 48.240 376
 48.260 400
 48.280 462
 48.300 457
 48.320 428
 48.340 441
 48.360 466
 48.380 475
 48.400 479
 48.420 484
 48.440 488
 48.460 515
 48.480 445
 48.500 497
 48.520 428
 48.540 479
 48.560 529
 48.580 488
 48.600 515
 48.620 533
 48.640 492
 48.660 488
 48.680 524
 48.700 466
 48.720 400
 48.740 436
 48.760 396
 48.780 420
 48.800 416
 48.820 392
 48.840 372
 48.860 416
 48.880 392
 48.900 400
 48.920 445
 48.940 404
 48.960 453
 48.980 479
 49.000 515
 49.020 484
 49.040 470
 49.060 497
 49.080 524
 49.100 538
 49.120 542
 49.140 571
 49.160 620
 49.180 590
 49.200 655
 49.220 691
 49.240 696
 49.260 795
 49.280 841
 49.300 852
 49.320 942
 49.340 1122
 49.360 1391
 49.380 1466
 49.400 1738
 49.420 1697
 49.440 1600
 49.460 1391
 49.480 1197
 49.500 1049
 49.520 1043
 49.540 992
 49.560 918
 49.580 778
 49.600 640
 49.620 533
 49.640 462
 49.660 400
 49.680 357
 49.700 345
 49.720 327
 49.740 331
 49.760 309
 49.780 361
 49.800 345
 49.820 331
 49.840 349
 49.860 316
 49.880 306
 49.900 309
 49.920 316
 49.940 292
 49.960 306
 49.980 306
 50.000 306
 50.020 282
 50.040 262
 50.060 262
 50.080 275
 50.100 265
 50.120 282
 50.140 292
 50.160 295
 50.180 256
 50.200 275
 50.220 282
 50.240 246
 50.260 299
 50.280 285
 50.300 256
 50.320 275
 50.340 272
 50.360 302
 50.380 289
 50.400 282
 50.420 299
 50.440 324
 50.460 295
 50.480 331
 50.500 324
 50.520 309
 50.540 306
 50.560 320
 50.580 292
 50.600 272
 50.620 285
 50.640 278
 50.660 272
 50.680 256
 50.700 282
 50.720 289
 50.740 289
 50.760 289
 50.780 289
 50.800 278
 50.820 320
 50.840 292
 50.860 265
 50.880 299
 50.900 246
 50.920 268
 50.940 259
 50.960 285
 50.980 262
 51.000 265
 51.020 240
 51.040 252
 51.060 285
 51.080 240
 51.100 268
 51.120 243
 51.140 285
 51.160 265
 51.180 246
 51.200 292
 51.220 278
 51.240 275
 51.260 302
 51.280 278
 51.300 275
 51.320 275
 51.340 268
 51.360 256
 51.380 256
 51.400 268
 51.420 285
 51.440 262
 51.460 243
 51.480 275
 51.500 285
 51.520 231
 51.540 275
 51.560 272
 51.580 302
 51.600 313
 51.620 278
 51.640 272
 51.660 285
 51.680 282
 51.700 292
 51.720 295
 51.740 289
 51.760 275
 51.780 256
 51.800 289
 51.820 268
 51.840 262
 51.860 268
 51.880 299
 51.900 262
 51.920 282
 51.940 256
 51.960 306
 51.980 262
 52.000 285
 52.020 265
 52.040 313
 52.060 262
 52.080 275
 52.100 256
 52.120 285
 52.140 320
 52.160 282
 52.180 289
 52.200 309
 52.220 320
 52.240 334
 52.260 345
 52.280 306
 52.300 324
 52.320 372
 52.340 342
 52.360 357
 52.380 388
 52.400 357
 52.420 396
 52.440 404
 52.460 412
 52.480 497
 52.500 462
 52.520 479
 52.540 506
 52.560 538
 52.580 580
 52.600 556
 52.620 561
 52.640 585
 52.660 620
 52.680 691
 52.700 702
 52.720 823
 52.740 858
 52.760 924
 52.780 1049
 52.800 1156
 52.820 1232
 52.840 1267
 52.860 1239
 52.880 1197
 52.900 1197
 52.920 1169
 52.940 1190
 52.960 1239
 52.980 1075
 53.000 1043
 53.020 936
 53.040 795
 53.060 712
 53.080 660
 53.100 585
 53.120 515
 53.140 457
 53.160 453
 53.180 392
 53.200 388
 53.220 313
 53.240 299
 53.260 306
 53.280 289
 53.300 272
 53.320 289
 53.340 272
 53.360 295
 53.380 285
 53.400 278
 53.420 342
 53.440 306
 53.460 309
 53.480 282
 53.500 313
 53.520 313
 53.540 278
 53.560 285
 53.580 316
 53.600 299
 53.620 292
 53.640 285
 53.660 289
 53.680 302
 53.700 285
 53.720 272
 53.740 292
 53.760 306
 53.780 320
 53.800 313
 53.820 313
 53.840 306
 53.860 324
 53.880 349
 53.900 313
 53.920 299
 53.940 306
 53.960 331
 53.980 316
 54.000 345
 54.020 278
 54.040 306
 54.060 316
 54.080 278
 54.100 289
 54.120 289
 54.140 282
 54.160 249
 54.180 252
 54.200 285
 54.220 292
 54.240 278
 54.260 292
 54.280 272
 54.300 268
 54.320 268
 54.340 295
 54.360 272
 54.380 272
 54.400 289
 54.420 285
 54.440 272
 54.460 262
 54.480 289
 54.500 289
 54.520 313
 54.540 316
 54.560 295
 54.580 295
 54.600 313
 54.620 342
 54.640 361
 54.660 338
 54.680 327
 54.700 361
 54.720 408
 54.740 436
 54.760 416
 54.780 416
 54.800 388
 54.820 416
 54.840 428
 54.860 420
 54.880 420
 54.900 428
 54.920 428
 54.940 449
 54.960 436
 54.980 436
 55.000 416
 55.020 445
 55.040 327
 55.060 368
 55.080 357
 55.100 353
 55.120 334
 55.140 327
 55.160 316
 55.180 282
 55.200 309
 55.220 289
 55.240 285
 55.260 275
 55.280 268
 55.300 285
 55.320 278
 55.340 275
 55.360 259
 55.380 331
 55.400 292
 55.420 268
 55.440 285
 55.460 313
 55.480 262
 55.500 268
 55.520 313
 55.540 361
 55.560 345
 55.580 342
 55.600 372
 55.620 416
 55.640 432
 55.660 449
 55.680 376
 55.700 380
 55.720 384
 55.740 396
 55.760 388
 55.780 338
 55.800 331
 55.820 299
 55.840 324
 55.860 313
 55.880 295
 55.900 324
 55.920 265
 55.940 289
 55.960 331
 55.980 292
 56.000 265
 56.020 256
 56.040 240
 56.060 285
 56.080 292
 56.100 272
 56.120 275
 56.140 306
 56.160 313
 56.180 299
 56.200 306
 56.220 313
 56.240 299
 56.260 313
 56.280 316
 56.300 313
 56.320 309
 56.340 349
 56.360 342
 56.380 338
 56.400 342
 56.420 384
 56.440 361
 56.460 361
 56.480 388
 56.500 424
 56.520 364
 56.540 416
 56.560 349
 56.580 404
 56.600 432
 56.620 445
 56.640 470
 56.660 449
 56.680 524
 56.700 449
 56.720 515
 56.740 488
 56.760 524
 56.780 515
 56.800 524
 56.820 566
 56.840 571
 56.860 600
 56.880 615
 56.900 630
 56.920 615
 56.940 655
 56.960 702
 56.980 686
 57.000 712
 57.020 756
 57.040 756
 57.060 806
 57.080 841
 57.100 846
 57.120 806
 57.140 846
 57.160 817
 57.180 858
 57.200 846
 57.220 812
 57.240 795
 57.260 761
 57.280 691
 57.300 655
 57.320 615
 57.340 620
 57.360 605
 57.380 571
 57.400 524
 57.420 506
 57.440 470
 57.460 416
 57.480 376
 57.500 361
 57.520 396
 57.540 364
 57.560 372
 57.580 334
 57.600 342
 57.620 316
 57.640 331
 57.660 338
 57.680 364
 57.700 320
 57.720 299
 57.740 331
 57.760 327
 57.780 316
 57.800 345
 57.820 324
 57.840 376
 57.860 412
 57.880 424
 57.900 412
 57.920 416
 57.940 380
 57.960 453
 57.980 449
 58.000 488
 58.020 470
 58.040 497
 58.060 519
 58.080 484
 58.100 519
 58.120 515
 58.140 590
 58.160 571
 58.180 600
 58.200 655
 58.220 655
 58.240 734
 58.260 784
 58.280 936
 58.300 979
 58.320 1102
 58.340 1176
 58.360 1253
 58.380 1156
 58.400 1049
 58.420 930
 58.440 829
 58.460 858
 58.480 812
 58.500 812
 58.520 772
 58.540 702
 58.560 605
 58.580 519
 58.600 492
 58.620 392
 58.640 404
 58.660 396
 58.680 331
 58.700 302
 58.720 282
 58.740 292
 58.760 338
 58.780 306
 58.800 316
 58.820 324
 58.840 342
 58.860 295
 58.880 316
 58.900 265
 58.920 309
 58.940 327
 58.960 313
 58.980 313
 59.000 292
 59.020 295
 59.040 278
 59.060 292
 59.080 324
 59.100 256
 59.120 285
 59.140 292
 59.160 313
 59.180 316
 59.200 338
 59.220 320
 59.240 338
 59.260 331
 59.280 342
 59.300 331
 59.320 320
 59.340 334
 59.360 324
 59.380 364
 59.400 324
 59.420 342
 59.440 306
 59.460 306
 59.480 309
 59.500 309
 59.520 313
 59.540 306
 59.560 313
 59.580 289
 59.600 316
 59.620 285
 59.640 299
 59.660 292
 59.680 275
 59.700 278
 59.720 285
 59.740 309
 59.760 252
 59.780 256
 59.800 285
 59.820 275
 59.840 272
 59.860 289
 59.880 234
 59.900 262
 59.920 278
 59.940 265
 59.960 252
 59.980 275
 60.000 265
 60.020 259
 60.040 262
 60.060 265
 60.080 246
 60.100 289
 60.120 262
 60.140 299
 60.160 268
 60.180 265
 60.200 285
 60.220 282
 60.240 272
 60.260 292
 60.280 275
 60.300 272
 60.320 259
 60.340 268
 60.360 265
 60.380 272
 60.400 295
 60.420 252
 60.440 282
 60.460 292
 60.480 275
 60.500 292
 60.520 320
 60.540 292
 60.560 302
 60.580 331
 60.600 289
 60.620 306
 60.640 289
 60.660 357
 60.680 313
 60.700 345
 60.720 364
 60.740 342
 60.760 368
 60.780 388
 60.800 428
 60.820 428
 60.840 420
 60.860 436
 60.880 457
 60.900 457
 60.920 497
 60.940 457
 60.960 510
 60.980 529
 61.000 615
 61.020 576
 61.040 620
 61.060 640
 61.080 686
 61.100 696
 61.120 670
 61.140 696
 61.160 691
 61.180 686
 61.200 691
 61.220 734
 61.240 772
 61.260 864
 61.280 912
 61.300 930
 61.320 979
 61.340 998
 61.360 1036
 61.380 1049
 61.400 1062
 61.420 1082
 61.440 1204
 61.460 1246
 61.480 1253
 61.500 1369
 61.520 1459
 61.540 1361
 61.560 1274
 61.580 1169
 61.600 1036
 61.620 985
 61.640 930
 61.660 882
 61.680 841
 61.700 812
 61.720 681
 61.740 635
 61.760 580
 61.780 561
 61.800 470
 61.820 492
 61.840 420
 61.860 388
 61.880 396
 61.900 353
 61.920 372
 61.940 338
 61.960 345
 61.980 342
 62.000 428
 62.020 396
 62.040 457
 62.060 462
 62.080 475
 62.100 529
 62.120 466
 62.140 445
 62.160 408
 62.180 449
 62.200 470
 62.220 488
 62.240 466
 62.260 492
 62.280 506
 62.300 449
 62.320 457
 62.340 484
 62.360 441
 62.380 388
 62.400 364
 62.420 372
 62.440 404
 62.460 345
 62.480 338
 62.500 349
 62.520 324
 62.540 327
 62.560 338
 62.580 285
 62.600 272
 62.620 292
 62.640 302
 62.660 265
 62.680 249
 62.700 265
 62.720 309
 62.740 316
 62.760 268
 62.780 299
 62.800 259
 62.820 259
 62.840 265
 62.860 262
 62.880 268
 62.900 275
 62.920 234
 62.940 292
 62.960 249
 62.980 252
 63.000 228
 63.020 246
 63.040 246
 63.060 234
 63.080 249
 63.100 259
 63.120 262
 63.140 256
 63.160 259
 63.180 243
 63.200 252
 63.220 246
 63.240 225
 63.260 240
 63.280 243
 63.300 249
 63.320 240
 63.340 228
 63.360 243
 63.380 222
 63.400 262
 63.420 246
 63.440 246
 63.460 234
 63.480 259
 63.500 243
 63.520 262
 63.540 246
 63.560 268
 63.580 265
 63.600 249
 63.620 216
 63.640 256
 63.660 262
 63.680 246
 63.700 243
 63.720 240
 63.740 265
 63.760 237
 63.780 256
 63.800 240
 63.820 228
 63.840 246
 63.860 268
 63.880 213
 63.900 234
 63.920 262
 63.940 246
 63.960 228
 63.980 246
 64.000 234
 64.020 278
 64.040 234
 64.060 262
 64.080 252
 64.100 289
 64.120 272
 64.140 327
 64.160 268
 64.180 316
 64.200 272
 64.220 299
 64.240 316
 64.260 272
 64.280 278
 64.300 306
 64.320 295
 64.340 275
 64.360 285
 64.380 275
 64.400 309
 64.420 295
 64.440 275
 64.460 285
 64.480 285
 64.500 272
 64.520 252
 64.540 259
 64.560 285
 64.580 268
 64.600 285
 64.620 275
 64.640 278
 64.660 295
 64.680 292
 64.700 289
 64.720 306
 64.740 316
 64.760 316
 64.780 299
 64.800 331
 64.820 345
 64.840 361
 64.860 380
 64.880 357
 64.900 353
 64.920 376
 64.940 380
 64.960 372
 64.980 364
 65.000 396
 65.020 404
 65.040 349
 65.060 376
 65.080 364
 65.100 396
 65.120 388
 65.140 372
 65.160 384
 65.180 338
 65.200 376
 65.220 396
 65.240 357
 65.260 342
 65.280 368
 65.300 364
 65.320 361
 65.340 361
 65.360 396
 65.380 420
 65.400 416
 65.420 432
 65.440 380
 65.460 432
 65.480 457
 65.500 436
 65.520 436
 65.540 506
 65.560 506
 65.580 547
 65.600 529
 65.620 515
 65.640 510
 65.660 571
 65.680 561
 65.700 630
 65.720 561
 65.740 620
 65.760 640
 65.780 686
 65.800 707
 65.820 784
 65.840 761
 65.860 812
 65.880 789
 65.900 778
 65.920 846
 65.940 829
 65.960 800
 65.980 761
 66.000 756
 66.020 767
 66.040 739
 66.060 655
 66.080 718
 66.100 655
 66.120 630
 66.140 585
 66.160 538
 66.180 497
 66.200 457
 66.220 488
 66.240 445
 66.260 449
 66.280 396
 66.300 424
 66.320 380
 66.340 392
 66.360 368
 66.380 334
 66.400 331
 66.420 331
 66.440 372
 66.460 357
 66.480 357
 66.500 292
 66.520 306
 66.540 338
 66.560 327
 66.580 313
 66.600 299
 66.620 313
 66.640 285
 66.660 306
 66.680 282
 66.700 259
 66.720 306
 66.740 275
 66.760 285
 66.780 302
 66.800 306
 66.820 345
 66.840 302
 66.860 309
 66.880 295
 66.900 278
 66.920 285
 66.940 292
 66.960 313
 66.980 331
 67.000 306
 67.020 324
 67.040 324
 67.060 342
 67.080 331
 67.100 316
 67.120 327
 67.140 316
 67.160 316
 67.180 368
 67.200 349
 67.220 327
 67.240 392
 67.260 412
 67.280 416
 67.300 420
 67.320 368
 67.340 353
 67.360 357
 67.380 388
 67.400 384
 67.420 412
 67.440 453
 67.460 484
 67.480 457
 67.500 501
 67.520 515
 67.540 484
 67.560 524
 67.580 547
 67.600 566
 67.620 620
 67.640 670
 67.660 778
 67.680 888
 67.700 948
 67.720 936
 67.740 800
 67.760 812
 67.780 635
 67.800 595
 67.820 524
 67.840 529
 67.860 538
 67.880 552
 67.900 585
 67.920 529
 67.940 542
 67.960 445
 67.980 357
 68.000 320
 68.020 327
 68.040 275
 68.060 265
 68.080 240
 68.100 256
 68.120 225
 68.140 265
 68.160 249
 68.180 237
 68.200 231
 68.220 228
 68.240 249
 68.260 219
 68.280 246
 68.300 246
 68.320 243
 68.340 222
 68.360 231
 68.380 237
 68.400 216
 68.420 231
 68.440 228
 68.460 219
 68.480 207
 68.500 216
 68.520 231
 68.540 219
 68.560 237
 68.580 213
 68.600 222
 68.620 201
 68.640 222
 68.660 228
 68.680 228
 68.700 228
 68.720 219
 68.740 225
 68.760 246
 68.780 231
 68.800 207
 68.820 222
 68.840 222
 68.860 216
 68.880 225
 68.900 240
 68.920 196
 68.940 237
 68.960 240
 68.980 216
 69.000 213
 69.020 207
 69.040 243
 69.060 216
 69.080 225
 69.100 234
 69.120 231
 69.140 207
 69.160 219
 69.180 222
 69.200 228
 69.220 213
 69.240 219
 69.260 219
 69.280 207
 69.300 237
 69.320 246
 69.340 225
 69.360 228
 69.380 256
 69.400 222
 69.420 225
 69.440 225
 69.460 228
 69.480 228
 69.500 204
 69.520 216
 69.540 272
 69.560 265
 69.580 278
 69.600 259
 69.620 259
 69.640 240
 69.660 243
 69.680 262
 69.700 265
 69.720 262
 69.740 259
 69.760 262
 69.780 231
 69.800 249
 69.820 256
 69.840 246
 69.860 240
 69.880 252
 69.900 282
 69.920 240
 69.940 265
 69.960 285
 69.980 259
 70.000 282
 70.020 306
 70.040 246
 70.060 268
 70.080 252
 70.100 262
 70.120 243
 70.140 240
 70.160 272
 70.180 259
 70.200 285
 70.220 282
 70.240 252
 70.260 272
 70.280 252
 70.300 289
 70.320 285
 70.340 295
 70.360 302
 70.380 309
 70.400 313
 70.420 316
 70.440 357
 70.460 342
 70.480 364
 70.500 313
 70.520 324
 70.540 376
 70.560 408
 70.580 368
 70.600 396
 70.620 388
 70.640 416
 70.660 428
 70.680 404
 70.700 400
 70.720 424
 70.740 376
 70.760 361
 70.780 372
 70.800 345
 70.820 353
 70.840 331
 70.860 334
 70.880 345
 70.900 309
 70.920 320
 70.940 327
 70.960 306
 70.980 295
 71.000 240
 71.020 268
 71.040 246
 71.060 256
 71.080 231
 71.100 265
 71.120 259
 71.140 228
 71.160 246
 71.180 252
 71.200 210
 71.220 259
 71.240 225
 71.260 225
 71.280 216
 71.300 184
 71.320 234
 71.340 216
 71.360 198
 71.380 198
 71.400 262
 71.420 213
 71.440 228
 71.460 252
 71.480 228
 71.500 219
 71.520 210
 71.540 240
 71.560 243
 71.580 213
 71.600 198
 71.620 198
 71.640 222
 71.660 225
 71.680 201
 71.700 225
 71.720 201
 71.740 216
 71.760 207
 71.780 201
 71.800 176
 71.820 213
 71.840 204
 71.860 225
 71.880 219
 71.900 201
 71.920 216
 71.940 187
 71.960 204
 71.980 182
 72.000 196
 72.020 201
 72.040 243
 72.060 210
 72.080 182
 72.100 225
 72.120 187
 72.140 222
 72.160 182
 72.180 210
 72.200 187
 72.220 204
 72.240 196
 72.260 237
 72.280 210
 72.300 196
 72.320 237
 72.340 210
 72.360 210
 72.380 201
 72.400 210
 72.420 207
 72.440 225
 72.460 219
 72.480 207
 72.500 228
 72.520 184
 72.540 207
 72.560 222
 72.580 193
 72.600 225
 72.620 219
 72.640 207
 72.660 225
 72.680 234
 72.700 219
 72.720 246
 72.740 231
 72.760 234
 72.780 259
 72.800 252
 72.820 234
 72.840 210
 72.860 219
 72.880 246
 72.900 198
 72.920 246
 72.940 222
 72.960 262
 72.980 237
 73.000 222
 73.020 237
 73.040 259
 73.060 246
 73.080 219
 73.100 231
 73.120 272
 73.140 246
 73.160 240
 73.180 259
 73.200 289
 73.220 272
 73.240 246
 73.260 262
 73.280 249
 73.300 246
 73.320 262
 73.340 243
 73.360 256
 73.380 272
 73.400 268
 73.420 278
 73.440 222
 73.460 231
 73.480 231
 73.500 225
 73.520 204
 73.540 219
 73.560 249
 73.580 219
 73.600 231
 73.620 252
 73.640 225
 73.660 237
 73.680 234
 73.700 243
 73.720 234
 73.740 262
 73.760 243
 73.780 237
 73.800 216
 73.820 213
 73.840 201
 73.860 237
 73.880 207
 73.900 240
 73.920 234
 73.940 219
 73.960 231
 73.980 228
 74.000 225
 74.020 196
 74.040 222
 74.060 196
 74.080 213
 74.100 201
 74.120 228
 74.140 201
 74.160 222
 74.180 237
 74.200 201
 74.220 237
 74.240 201
 74.260 207
 74.280 243
 74.300 231
 74.320 196
 74.340 216
 74.360 225
 74.380 210
 74.400 222
 74.420 198
 74.440 240
 74.460 228
 74.480 249
 74.500 259
 74.520 256
 74.540 249
 74.560 249
 74.580 243
 74.600 292
 74.620 285
 74.640 272
 74.660 265
 74.680 240
 74.700 275
 74.720 268
 74.740 306
 74.760 295
 74.780 320
 74.800 349
 74.820 327
 74.840 320
 74.860 299
 74.880 327
 74.900 309
 74.920 320
 74.940 349
 74.960 353
 74.980 331
 75.000 349
 75.020 372
 75.040 338
 75.060 380
 75.080 400
 75.100 388
 75.120 424
 75.140 457
 75.160 436
 75.180 420
 75.200 436
 75.220 436
 75.240 457
 75.260 412
 75.280 484
 75.300 533
 75.320 466
 75.340 475
 75.360 449
 75.380 416
 75.400 384
 75.420 372
 75.440 384
 75.460 353
 75.480 353
 75.500 364
 75.520 357
 75.540 278
 75.560 292
 75.580 295
 75.600 282
 75.620 256
 75.640 252
 75.660 275
 75.680 249
 75.700 234
 75.720 259
 75.740 219
 75.760 234
 75.780 231
 75.800 228
 75.820 216
 75.840 231
 75.860 240
 75.880 259
 75.900 262
 75.920 249
 75.940 275
 75.960 265
 75.980 259
 76.000 259
 76.020 246
 76.040 278
 76.060 289
 76.080 275
 76.100 252
 76.120 282
 76.140 292
 76.160 272
 76.180 324
 76.200 309
 76.220 334
 76.240 353
 76.260 361
 76.280 295
 76.300 299
 76.320 282
 76.340 278
 76.360 268
 76.380 272
 76.400 237
 76.420 256
 76.440 259
 76.460 275
 76.480 252
 76.500 272
 76.520 237
 76.540 216
 76.560 210
 76.580 219
 76.600 222
 76.620 237
 76.640 207
 76.660 231
 76.680 187
 76.700 184
 76.720 196
 76.740 210
 76.760 190
 76.780 204
 76.800 193
 76.820 210
 76.840 176
 76.860 196
 76.880 213
 76.900 216
 76.920 198
 76.940 216
 76.960 213
 76.980 210
 77.000 249
 77.020 201
 77.040 213
 77.060 219
 77.080 237
 77.100 196
 77.120 198
 77.140 213
 77.160 198
 77.180 196
 77.200 201
 77.220 222
 77.240 216
 77.260 243
 77.280 228
 77.300 213
 77.320 204
 77.340 201
 77.360 219
 77.380 213
 77.400 213
 77.420 234
 77.440 225
 77.460 207
 77.480 216
 77.500 252
 77.520 252
 77.540 222
 77.560 262
 77.580 243
 77.600 256
 77.620 262
 77.640 262
 77.660 265
 77.680 278
 77.700 252
 77.720 259
 77.740 275
 77.760 278
 77.780 252
 77.800 256
 77.820 262
 77.840 228
 77.860 237
 77.880 259
 77.900 252
 77.920 237
 77.940 249
 77.960 262
 77.980 237
 78.000 278
 78.020 237
 78.040 262
 78.060 249
 78.080 246
 78.100 252
 78.120 272
 78.140 246
 78.160 275
 78.180 272
 78.200 259
 78.220 246
 78.240 249
 78.260 265
 78.280 231
 78.300 237
 78.320 225
 78.340 204
 78.360 228
 78.380 243
 78.400 228
 78.420 225
 78.440 201
 78.460 196
 78.480 222
 78.500 222
 78.520 190
 78.540 198
 78.560 207
 78.580 198
 78.600 198
 78.620 204
 78.640 182
 78.660 187
 78.680 213
 78.700 184
 78.720 184
 78.740 210
 78.760 204
 78.780 182
 78.800 196
 78.820 198
 78.840 196
 78.860 184
 78.880 207
 78.900 196
 78.920 207
 78.940 166
 78.960 171
 78.980 225
 79.000 225
 79.020 179
 79.040 196
 79.060 207
 79.080 196
 79.100 193
 79.120 213
 79.140 210
 79.160 196
 79.180 198
 79.200 216
 79.220 207
 79.240 196
 79.260 193
 79.280 216
 79.300 196
 79.320 198
 79.340 222
 79.360 190
 79.380 196
 79.400 171
 79.420 210
 79.440 190
 79.460 198
 79.480 216
 79.500 198
 79.520 184
 79.540 198
 79.560 169
 79.580 196
 79.600 207
 79.620 198
 79.640 198
 79.660 222
 79.680 207
 79.700 198
 79.720 204
 79.740 204
 79.760 176
 79.780 216
 79.800 231
 79.820 234
 79.840 240
 79.860 246
 79.880 240
 79.900 243
 79.920 222
 79.940 243
 79.960 225
 79.980 268
 80.000 262
 80.020 265
 80.040 265
 80.060 252
 80.080 256
 80.100 249
 80.120 256
 80.140 268
 80.160 265
 80.180 237
 80.200 306
 80.220 282
 80.240 299
 80.260 313
 80.280 299
 80.300 272
 80.320 268
 80.340 278
 80.360 285
 80.380 278
 80.400 265
 80.420 285
 80.440 299
 80.460 272
 80.480 246
 80.500 234
 80.520 262
 80.540 234
 80.560 234
 80.580 225
 80.600 216
 80.620 225
 80.640 228
 80.660 216
 80.680 228
 80.700 210
 80.720 187
 80.740 196
 80.760 196
 80.780 179
 80.800 176
 80.820 184
 80.840 187
 80.860 161
 80.880 219
 80.900 176
 80.920 184
 80.940 201
 80.960 182
 80.980 201
 81.000 196
 81.020 182
 81.040 184
 81.060 201
 81.080 174
 81.100 174
 81.120 222
 81.140 179
 81.160 210
 81.180 201
 81.200 201
 81.220 171
 81.240 187
 81.260 187
 81.280 184
 81.300 174
 81.320 182
 81.340 171
 81.360 169
 81.380 179
 81.400 176
 81.420 184
 81.440 187
 81.460 204
 81.480 156
 81.500 176
 81.520 184
 81.540 190
 81.560 163
 81.580 153
 81.600 161
 81.620 182
 81.640 169
 81.660 176
 81.680 166
 81.700 196
 81.720 148
 81.740 182
 81.760 163
 81.780 166
 81.800 174
 81.820 184
 81.840 169
 81.860 176
 81.880 171
 81.900 163
 81.920 187
 81.940 182
 81.960 187
 81.980 148
 82.000 193
 82.020 182
 82.040 151
 82.060 158
 82.080 174
 82.100 161
 82.120 184
 82.140 156
 82.160 163
 82.180 156
 82.200 193
 82.220 174
 82.240 176
 82.260 184
 82.280 171
 82.300 166
 82.320 184
 82.340 196
 82.360 179
 82.380 174
 82.400 196
 82.420 187
 82.440 184
 82.460 193
 82.480 179
 82.500 225
 82.520 213
 82.540 190
 82.560 171
 82.580 187
 82.600 184
 82.620 196
 82.640 190
 82.660 187
 82.680 179
 82.700 182
 82.720 182
 82.740 210
 82.760 210
 82.780 176
 82.800 193
 82.820 176
 82.840 204
 82.860 207
 82.880 179
 82.900 161
 82.920 184
 82.940 222
 82.960 179
 82.980 193
 83.000 207
 83.020 187
 83.040 184
 83.060 179
 83.080 187
 83.100 174
 83.120 169
 83.140 163
 83.160 156
 83.180 169
 83.200 182
 83.220 169
 83.240 182
 83.260 163
 83.280 184
 83.300 184
 83.320 174
 83.340 179
 83.360 169
 83.380 174
 83.400 187
 83.420 179
 83.440 193
 83.460 163
 83.480 163
 83.500 182
 83.520 148
 83.540 182
 83.560 182
 83.580 163
 83.600 163
 83.620 193
 83.640 184
 83.660 171
 83.680 153
 83.700 171
 83.720 158
 83.740 169
 83.760 182
 83.780 174
 83.800 169
 83.820 153
 83.840 196
 83.860 179
 83.880 182
 83.900 161
 83.920 169
 83.940 187
 83.960 190
 83.980 158
 84.000 190
 84.020 151
 84.040 174
 84.060 171
 84.080 163
 84.100 176
 84.120 144
 84.140 174
 84.160 196
 84.180 174
 84.200 169
 84.220 204
 84.240 198
 84.260 187
 84.280 182
 84.300 171
 84.320 193
 84.340 161
 84.360 161
 84.380 193
 84.400 179
 84.420 182
 84.440 187
 84.460 196
 84.480 190
 84.500 196
 84.520 187
 84.540 182
 84.560 204
 84.580 158
 84.600 179
 84.620 201
 84.640 193
 84.660 219
 84.680 184
 84.700 219
 84.720 210
 84.740 190
 84.760 190
 84.780 196
 84.800 228
 84.820 207
 84.840 219
 84.860 207
 84.880 198
 84.900 207
 84.920 237
 84.940 231
 84.960 240
 84.980 252
 85.000 252
 85.020 237
 85.040 246
 85.060 240
 85.080 249
 85.100 246
 85.120 231
 85.140 246
 85.160 249
 85.180 256
 85.200 262
 85.220 265
 85.240 234
 85.260 256
 85.280 246
 85.300 256
 85.320 285
 85.340 295
 85.360 299
 85.380 295
 85.400 338
 85.420 295
 85.440 292
 85.460 299
 85.480 299
 85.500 285
 85.520 313
 85.540 320
 85.560 285
 85.580 268
 85.600 289
 85.620 285
 85.640 268
 85.660 249
 85.680 252
 85.700 275
 85.720 234
 85.740 262
 85.760 262
 85.780 240
 85.800 256
 85.820 193
 85.840 228
 85.860 225
 85.880 213
 85.900 216
 85.920 231
 85.940 234
 85.960 187
 85.980 190
 86.000 182
 86.020 176
 86.040 198
 86.060 184
 86.080 201
 86.100 207
 86.120 201
 86.140 196
 86.160 182
 86.180 190
 86.200 213
 86.220 187
 86.240 158
 86.260 184
 86.280 201
 86.300 148
 86.320 169
 86.340 161
 86.360 169
 86.380 134
 86.400 187
 86.420 176
 86.440 166
 86.460 176
 86.480 182
 86.500 179
 86.520 187
 86.540 187
 86.560 176
 86.580 187
 86.600 187
 86.620 166
 86.640 201
 86.660 184
 86.680 182
 86.700 182
 86.720 198
 86.740 187
 86.760 176
 86.780 187
 86.800 213
 86.820 193
 86.840 176
 86.860 187
 86.880 193
 86.900 174
 86.920 196
 86.940 190
 86.960 171
 86.980 196
 87.000 187
 87.020 187
 87.040 182
 87.060 187
 87.080 184
 87.100 182
 87.120 174
 87.140 198
 87.160 213
 87.180 198
 87.200 187
 87.220 182
 87.240 182
 87.260 196
 87.280 190
 87.300 193
 87.320 174
 87.340 176
 87.360 184
 87.380 182
 87.400 184
 87.420 184
 87.440 190
 87.460 190
 87.480 156
 87.500 176
 87.520 163
 87.540 166
 87.560 187
 87.580 190
 87.600 190
 87.620 182
 87.640 187
 87.660 184
 87.680 187
 87.700 204
 87.720 196
 87.740 184
 87.760 171
 87.780 213
 87.800 187
 87.820 174
 87.840 187
 87.860 201
 87.880 166
 87.900 169
 87.920 176
 87.940 187
 87.960 187
 87.980 190
 88.000 187
 88.020 184
 88.040 161
 88.060 174
 88.080 184
 88.100 187
 88.120 196
 88.140 161
 88.160 201
 88.180 184
 88.200 219
 88.220 207
 88.240 219
 88.260 225
 88.280 198
 88.300 219
 88.320 171
 88.340 198
 88.360 219
 88.380 184
 88.400 204
 88.420 207
 88.440 204
 88.460 204
 88.480 196
 88.500 210
 88.520 171
 88.540 222
 88.560 210
 88.580 237
 88.600 201
 88.620 207
 88.640 252
 88.660 237
 88.680 246
 88.700 219
 88.720 231
 88.740 225
 88.760 222
 88.780 213
 88.800 210
 88.820 225
 88.840 196
 88.860 210
 88.880 222
 88.900 231
 88.920 207
 88.940 198
 88.960 225
 88.980 184
 89.000 210
 89.020 193
 89.040 182
 89.060 187
 89.080 187
 89.100 216
 89.120 216
 89.140 193
 89.160 193
 89.180 174
 89.200 196
 89.220 156
 89.240 182
 89.260 187
 89.280 198
 89.300 182
 89.320 169
 89.340 176
 89.360 193
 89.380 187
 89.400 174
 89.420 182
 89.440 204
 89.460 187
 89.480 184
 89.500 182
 89.520 182
 89.540 198
 89.560 163
 89.580 171
 89.600 187
 89.620 196
 89.640 196
 89.660 176
 89.680 231
 89.700 213
 89.720 190
 89.740 213
 89.760 184
 89.780 196
 89.800 204
 89.820 210
 89.840 207
 89.860 176
 89.880 193
 89.900 219
 89.920 201
 89.940 176
 89.960 204
 89.980 210
 90.000 201
 90.020 207
 90.040 222
 90.060 198
 90.080 204
 90.100 193
 90.120 184
 90.140 184
 90.160 213
 90.180 184
 90.200 207
 90.220 187
 90.240 184
 90.260 213
 90.280 213
 90.300 196
 90.320 196
 90.340 216
 90.360 201
 90.380 210
 90.400 216
 90.420 219
 90.440 219
 90.460 222
 90.480 216
 90.500 231
 90.520 213
 90.540 240
 90.560 210
 90.580 216
 90.600 234
 90.620 222
 90.640 243
 90.660 240
 90.680 225
 90.700 268
 90.720 231
 90.740 275
 90.760 289
 90.780 289
 90.800 289
 90.820 272
 90.840 306
 90.860 292
 90.880 299
 90.900 299
 90.920 278
 90.940 309
 90.960 268
 90.980 268
 91.000 240
 91.020 265
 91.040 243
 91.060 256
 91.080 240
 91.100 252
 91.120 240
 91.140 222
 91.160 216
 91.180 216
 91.200 228
 91.220 198
 91.240 243
 91.260 213
 91.280 219
 91.300 222
 91.320 210
 91.340 196
 91.360 176
 91.380 213
 91.400 196
 91.420 198
 91.440 187
 91.460 184
 91.480 187
 91.500 210
 91.520 198
 91.540 193
 91.560 187
 91.580 222
 91.600 196
 91.620 216
 91.640 213
 91.660 216
 91.680 213
 91.700 198
 91.720 225
 91.740 201
 91.760 228
 91.780 207
 91.800 225
 91.820 234
 91.840 237
 91.860 216
 91.880 243
 91.900 222
 91.920 219
 91.940 237
 91.960 196
 91.980 213
 92.000 222
 92.020 198
 92.040 190
 92.060 207
 92.080 201
 92.100 204
 92.120 187
 92.140 179
 92.160 193
 92.180 176
 92.200 187
 92.220 179
 92.240 193
 92.260 182
 92.280 176
 92.300 169
 92.320 166
 92.340 163
 92.360 176
 92.380 184
 92.400 171
 92.420 174
 92.440 179
 92.460 179
 92.480 190
 92.500 176
 92.520 187
 92.540 187
 92.560 176
 92.580 174
 92.600 182
 92.620 184
 92.640 193
 92.660 174
 92.680 182
 92.700 176
 92.720 204
 92.740 201
 92.760 176
 92.780 198
 92.800 179
 92.820 213
 92.840 176
 92.860 190
 92.880 169
 92.900 222
 92.920 193
 92.940 176
 92.960 182
 92.980 171
 93.000 187
 93.020 182
 93.040 193
 93.060 166
 93.080 190
 93.100 187
 93.120 171
 93.140 156
 93.160 158
 93.180 179
 93.200 169
 93.220 148
 93.240 163
 93.260 190
 93.280 179
 93.300 176
 93.320 176
 93.340 196
 93.360 174
 93.380 182
 93.400 176
 93.420 169
 93.440 169
 93.460 163
 93.480 176
 93.500 169
 93.520 169
 93.540 193
 93.560 210
 93.580 174
 93.600 184
 93.620 182
 93.640 182
 93.660 176
 93.680 174
 93.700 176
 93.720 171
 93.740 179
 93.760 151
 93.780 163
 93.800 176
 93.820 193
 93.840 179
 93.860 187
 93.880 161
 93.900 146
 93.920 187
 93.940 166
 93.960 182
 93.980 169
 94.000 169
 94.020 201
 94.040 193
 94.060 187
 94.080 163
 94.100 182
 94.120 171
 94.140 169
 94.160 182
 94.180 163
 94.200 176
 94.220 161
 94.240 182
 94.260 193
 94.280 184
 94.300 169
 94.320 163
 94.340 176
 94.360 153
 94.380 161
 94.400 151
 94.420 187
 94.440 174
 94.460 176
 94.480 182
 94.500 198
 94.520 158
 94.540 148
 94.560 176
 94.580 171
 94.600 182
 94.620 153
 94.640 171
 94.660 171
 94.680 169
 94.700 171
 94.720 166
 94.740 156
 94.760 184
 94.780 187
 94.800 153
 94.820 198
 94.840 161
 94.860 151
 94.880 151
 94.900 174
 94.920 179
 94.940 179
 94.960 176
 94.980 176
 95.000 169
 95.020 174
 95.040 166
 95.060 148
 95.080 151
 95.100 169
 95.120 153
 95.140 169
 95.160 169
 95.180 169
 95.200 141
 95.220 163
 95.240 182
 95.260 174
 95.280 151
 95.300 161
 95.320 151
 95.340 196
 95.360 153
 95.380 169
 95.400 163
 95.420 169
 95.440 134
 95.460 161
 95.480 163
 95.500 176
 95.520 151
 95.540 184
 95.560 144
 95.580 158
 95.600 132
 95.620 156
 95.640 174
 95.660 166
 95.680 166
 95.700 161
 95.720 151
 95.740 156
 95.760 176
 95.780 169
 95.800 184
 95.820 158
 95.840 169
 95.860 148
 95.880 166
 95.900 158
 95.920 169
 95.940 196
 95.960 148
 95.980 174
 96.000 158
 96.020 156
 96.040 156
 96.060 166
 96.080 163
 96.100 182
 96.120 176
 96.140 166
 96.160 193
 96.180 179
 96.200 171
 96.220 169
 96.240 163
 96.260 158
 96.280 196
 96.300 169
 96.320 193
 96.340 182
 96.360 179
 96.380 174
 96.400 158
 96.420 187
 96.440 179
 96.460 169
 96.480 193
 96.500 198
 96.520 184
 96.540 196
 96.560 187
 96.580 196
 96.600 213
 96.620 187
 96.640 184
 96.660 204
 96.680 179
 96.700 163
 96.720 182
 96.740 207
 96.760 169
 96.780 174
 96.800 193
 96.820 158
 96.840 169
 96.860 176
 96.880 171
 96.900 182
 96.920 187
 96.940 179
 96.960 166
 96.980 201
 97.000 187
 97.020 190
 97.040 174
 97.060 193
 97.080 196
 97.100 166
 97.120 198
 97.140 163
 97.160 156
 97.180 182
 97.200 182
 97.220 163
 97.240 213
 97.260 174
 97.280 187
 97.300 184
 97.320 198
 97.340 201
 97.360 190
 97.380 213
 97.400 198
 97.420 207
 97.440 219
 97.460 222
 97.480 207
 97.500 184
 97.520 210
 97.540 190
 97.560 210
 97.580 216
 97.600 198
 97.620 196
 97.640 201
 97.660 219
 97.680 198
 97.700 231
 97.720 204
 97.740 222
 97.760 213
 97.780 201
 97.800 198
 97.820 210
 97.840 210
 97.860 204
 97.880 210
 97.900 184
 97.920 196
 97.940 171
 97.960 187
 97.980 182
 98.000 176
 98.020 201
 98.040 182
 98.060 171
 98.080 204
 98.100 176
 98.120 193
 98.140 176
 98.160 198
 98.180 216
 98.200 198
 98.220 193
 98.240 184
 98.260 187
 98.280 184
 98.300 196
 98.320 174
 98.340 198
 98.360 174
 98.380 207
 98.400 213
 98.420 196
 98.440 184
 98.460 184
 98.480 198
 98.500 184
 98.520 182
 98.540 196
 98.560 196
 98.580 210
 98.600 174
 98.620 204
 98.640 201
 98.660 201
 98.680 182
 98.700 216
 98.720 228
 98.740 222
 98.760 213
 98.780 225
 98.800 196
 98.820 225
 98.840 207
 98.860 176
 98.880 201
 98.900 187
 98.920 182
 98.940 166
 98.960 187
 98.980 187
 99.000 193
 99.020 182
 99.040 187
 99.060 171
 99.080 169
 99.100 213
 99.120 187
 99.140 184
 99.160 171
 99.180 169
 99.200 184
 99.220 193
 99.240 161
 99.260 187
 99.280 144
 99.300 169
 99.320 148
 99.340 182
 99.360 169
 99.380 169
 99.400 163
 99.420 158
 99.440 166
 99.460 163
 99.480 161
 99.500 179
 99.520 174
 99.540 158
 99.560 176
 99.580 169
 99.600 141
 99.620 166
 99.640 174
 99.660 171
 99.680 182
 99.700 196
 99.720 153
 99.740 176
 99.760 184
 99.780 184
 99.800 187
 99.820 176
 99.840 179
 99.860 166
 99.880 174
 99.900 163
 99.920 161
 99.940 176
 99.960 201
 99.980 148
100.000 176
